time,ch0,ch1,ch2
3,4095,144,170
5494,4095,146,4095
5496,153,142,4095
5498,4095,278,311
5499,4095,238,150
5501,128,4095,4095
5503,4095,4095,151
5504,4095,174,285
5506,274,4095,4095
5508,4095,4095,130
5509,4095,162,161
5511,810,146,4095
5513,150,132,4095
5514,406,256,314
5516,4095,4095,4095
5518,125,4095,4095
5520,4095,4095,95
5521,4095,163,358
5523,258,4095,4095
5525,4095,4095,112
5526,4095,169,146
5528,143,151,4095
5530,172,175,4095
5531,4095,274,304
5533,273,4095,4095
5535,126,4095,4095
5536,3265,4095,169
5538,4095,277,1375
5540,207,4095,4095
5542,4095,2689,107
5543,4095,159,176
5545,145,148,4095
5547,398,432,4095
5548,4095,288,241
5550,96,4095,4095
5552,138,4095,4095
5553,4095,4095,155
5555,4095,303,4095
5557,161,4095,4095
5558,4095,2986,138
5560,4095,171,149
5562,141,154,4095
5564,432,291,4095
5565,4095,226,193
5567,97,4095,4095
5568,112,4095,4095
5570,4095,4095,99
5572,4095,304,4095
5574,187,4095,191
5575,4095,2559,152
5577,4095,145,192
5579,145,150,4095
5580,173,201,4095
5582,4095,240,190
5584,98,4095,4095
5585,123,4095,4095
5587,4095,1273,169
5589,291,802,4095
5590,205,4095,232
5592,4095,1967,141
5594,4095,155,265
5595,145,141,4095
5597,395,429,4095
5599,4095,169,200
5600,105,4095,4095
5602,129,4095,2602
5604,4095,179,170
5605,4095,285,4095
5607,163,4095,169
5609,4095,986,139
5610,4095,167,1830
5612,144,158,4095
5614,462,336,4095
5616,4095,4095,192
5617,101,4095,4095
5619,144,4095,170
5621,4095,175,176
5622,4095,314,4095
5624,196,3600,150
5626,4095,168,153
5627,4095,147,4095
5629,141,149,4095
5631,4095,260,304
5632,4095,167,219
5634,110,4095,4095
5636,3236,4095,151
5637,4095,174,207
5639,284,1381,4095
5641,182,4095,125
5643,4095,149,159
5644,4095,208,4095
5646,144,145,4095
5648,4095,284,300
5649,4095,288,170
5651,63,4095,4095
5652,103,4095,163
5654,4095,167,303
5656,256,4095,4095
5658,4095,4095,112
5659,4095,162,160
5661,167,147,4095
5663,144,144,4095
5664,655,238,242
5666,4095,4095,191
5668,127,4095,4095
5669,145,4095,159
5671,4095,169,273
5673,243,4095,4095
5674,203,4095,123
5676,4095,172,151
5678,144,143,4095
5679,141,144,4095
5681,4095,265,278
5683,148,4095,4095
5684,115,4095,4095
5686,4095,4095,176
5688,4095,322,381
5689,272,4095,4095
5691,253,4095,108
5693,4095,153,130
5694,4095,159,4095
5696,143,146,4095
5698,4095,288,298
5699,4095,4095,4095
5701,112,4095,4095
5703,4095,4095,93
5705,4095,311,4095
5706,247,4095,4095
5708,4095,3653,133
5710,4095,144,127
5712,143,144,4095
5713,144,147,4095
5715,4095,270,234
5716,4095,4095,4095
5718,134,4095,4095
5720,4095,4095,194
5722,4095,323,4095
5724,208,3487,186
5725,4095,2442,145
5727,4095,151,176
5729,144,146,4095
5730,172,171,4095
5732,4095,235,201
5733,132,4095,4095
5735,114,4095,4095
5737,4095,202,175
5739,283,1449,4095
5740,191,4095,225
5742,4095,1929,137
5744,4095,146,1311
5745,153,149,4095
5747,400,445,4095
5749,4095,176,222
5750,111,4095,4095
5752,139,4095,1037
5754,4095,175,170
5756,256,4095,4095
5757,155,4095,161
5759,4095,829,151
5761,172,144,4095
5762,143,135,4095
5764,3243,293,290
5766,4095,4095,147
5767,94,4095,4095
5769,146,4095,163
5771,4095,173,161
5772,4095,293,4095
5774,208,4095,164
5776,4095,170,146
5777,4095,157,4095
5779,137,144,4095
5781,4095,284,290
5782,4095,206,333
5784,112,4095,4095
5786,4095,4095,174
5787,4095,176,170
5789,273,2063,4095
5791,643,4095,139
5792,4095,534,145
5794,4095,131,4095
5796,137,140,4095
5797,453,253,272
5799,4095,191,210
5801,111,4095,4095
5802,128,4095,169
5804,4095,158,176
5806,257,4095,4095
5807,151,3344,125
5809,4095,441,152
5811,170,144,4095
5812,141,140,4095
5814,3949,272,239
5816,4095,4095,148
5817,93,4095,4095
5819,145,4095,154
5821,4095,165,155
5822,4095,2221,4095
5824,197,4075,101
5826,4095,155,149
5827,4095,158,4095
5829,139,171,4095
5831,4095,270,309
5833,138,4095,4095
5834,112,4095,4095
5836,4095,4095,158
5838,4095,327,368
5839,290,4095,4095
5841,1366,4095,124
5843,4095,151,155
5845,155,143,4095
5846,139,140,4095
5848,4095,290,313
5849,4095,4095,4095
5851,124,4095,4095
5853,4095,4095,133
5855,4095,281,4095
5856,249,4095,4095
5858,4095,3171,137
5860,4095,149,167
5862,149,141,4095
5863,139,174,4095
5865,4095,260,247
5867,103,4095,4095
5868,112,4095,4095
5870,4095,4095,180
5872,4095,279,4095
5874,209,4095,176
5875,4095,2811,145
5877,4095,167,189
5879,144,134,4095
5880,173,220,4095
5882,4095,225,197
5883,64,4095,4095
5885,109,4095,4095
5887,4095,176,191
5889,268,3152,4095
5890,176,4095,176
5892,4095,2135,148
5894,4095,165,1253
5895,161,141,4095
5897,423,474,4095
5899,4095,203,218
5900,112,4095,4095
5902,128,4095,1335
5904,4095,173,179
5905,4095,302,4095
5907,149,4095,159
5909,4095,969,135
5910,4095,174,3094
5912,153,148,4095
5914,4095,260,258
5916,4095,4095,141
5917,102,4095,4095
5919,133,4095,144
5921,4095,160,192
5922,4095,1571,4095
5924,207,4095,122
5926,4095,157,176
5927,4095,160,4095
5929,144,143,4095
5931,4095,268,302
5932,4095,223,153
5934,126,4095,4095
5936,4095,4095,147
5938,4095,326,363
5939,270,4095,4095
5941,3245,4095,119
5943,4095,157,141
5944,4095,145,4095
5946,135,133,4095
5948,4095,293,311
5949,4095,4095,4095
5951,112,4095,4095
5953,4095,4095,139
5955,4095,229,4095
5956,257,4095,4095
5958,4095,4095,95
5960,4095,147,160
5961,164,140,4095
5963,130,147,4095
5965,4095,254,223
5966,4095,4095,4095
5968,112,4095,4095
5970,4095,4095,176
5972,4095,280,4095
5973,213,4095,4095
5975,4095,2835,155
5977,4095,169,176
5979,142,141,4095
5980,187,215,4095
5982,4095,243,206
5983,128,4095,4095
5985,108,4095,4095
5987,4095,176,183
5989,259,4078,4095
5990,176,4095,174
5992,4095,2173,130
5994,4095,159,2086
5995,156,153,4095
5997,445,477,4095
5999,4095,211,223
6000,105,4095,4095
6002,119,4095,177
6004,4095,163,193
6005,4095,283,4095
6007,144,4095,174
6009,4095,974,144
6010,4095,160,3571
6012,145,148,4095
6014,4095,272,256
6016,4095,4095,146
6017,102,4095,4095
6019,147,4095,153
6021,4095,172,208
6022,4095,1935,4095
6024,208,4095,115
6026,4095,155,143
6027,4095,149,4095
6029,141,151,4095
6031,4095,297,304
6032,4095,641,160
6034,107,4095,4095
6036,4095,4095,152
6038,4095,357,333
6039,257,4095,4095
6041,4095,4095,64
6043,4095,163,135
6044,4095,153,4095
6046,134,143,4095
6048,4095,319,250
6049,4095,4095,4095
6051,112,4095,4095
6053,4095,4095,139
6055,4095,213,4095
6056,263,4095,4095
6058,4095,4095,110
6060,4095,150,158
6061,163,144,4095
6063,130,155,4095
6065,4095,246,194
6066,4095,4095,4095
6068,127,4095,4095
6070,4095,4095,175
6072,4095,303,4095
6073,210,4095,4095
6075,4095,4095,139
6077,4095,153,195
6079,145,144,4095
6080,197,245,4095
6082,4095,238,297
6083,125,4095,4095
6085,117,4095,4095
6087,4095,193,173
6089,272,4095,4095
6090,185,4095,174
6092,4095,2447,201
6094,4095,144,2558
6095,150,209,4095
6097,485,462,4095
6099,4095,206,208
6100,98,4095,4095
6102,117,4095,406
6104,4095,178,113
6105,4095,305,4095
6107,162,4095,161
6109,4095,1227,135
6110,4095,164,4057
6112,149,162,4095
6114,4095,240,255
6116,4095,4095,161
6117,100,4095,4095
6119,144,4095,105
6121,4095,154,237
6122,4095,3147,4095
6124,180,4095,112
6126,4095,153,192
6127,4095,157,4095
6129,150,131,4095
6131,4095,272,324
6132,4095,4095,4095
6134,113,4095,4095
6136,4095,4095,173
6138,4095,346,364
6139,271,4095,4095
6141,4095,4095,113
6143,4095,147,145
6145,152,158,4095
6146,164,141,4095
6148,4095,302,303
6149,4095,4095,4095
6151,134,4095,4095
6153,4095,4095,150
6155,4095,208,4095
6156,224,4095,4095
6158,4095,4095,112
6160,4095,151,182
6162,155,142,4095
6163,136,181,4095
6165,4095,231,252
6167,96,4095,4095
6168,112,4095,4095
6170,4095,4095,192
6172,4095,289,4095
6173,223,4095,4095
6175,4095,4095,121
6177,4095,167,171
6179,150,134,4095
6180,176,273,4095
6182,4095,221,198
6183,115,4095,4095
6185,109,4095,4095
6187,4095,182,193
6189,263,4095,4095
6190,174,4095,273
6192,4095,3151,89
6194,4095,155,3312
6195,149,137,4095
6197,536,461,4095
6199,4095,235,203
6200,94,4095,4095
6202,111,4095,1232
6204,4095,160,192
6205,4095,319,4095
6207,134,4095,80
6209,4095,1171,142
6210,4095,151,2236
6212,155,207,4095
6214,4095,253,337
6215,4095,179,247
6217,107,4095,4095
6219,176,4095,166
6220,4095,181,87
6222,4095,307,4095
6224,193,4095,172
6225,4095,2577,130
6227,4095,151,4095
6229,138,135,4095
6231,4095,281,375
6232,4095,153,249
6234,111,4095,4095
6236,4095,4095,215
6237,4095,162,145
6239,250,4095,4095
6241,4095,4095,126
6242,4095,993,107
6244,4095,103,4095
6246,134,129,4095
6247,496,252,304
6249,4095,1361,1283
6251,112,4095,4095
6253,4095,4095,148
6254,4095,165,368
6256,253,4095,4095
6258,4095,4095,122
6259,4095,150,144
6261,158,161,4095
6263,100,144,4095
6264,4095,301,337
6266,4095,4095,4095
6268,113,4095,4095
6270,4095,4095,190
6271,4095,346,4095
6273,216,4095,4095
6275,4095,4095,130
6277,4095,160,226
6278,155,146,4095
6280,190,208,4095
6281,4095,336,183
6283,195,4095,4095
6285,112,4095,4095
6287,4095,176,235
6288,4095,268,4095
6290,167,4095,4095
6292,4095,3440,125
6293,4095,191,176
6295,154,144,4095
6297,466,426,4095
6298,4095,233,213
6300,109,4095,4095
6302,105,4095,4095
6304,4095,166,144
6305,4095,304,4095
6307,149,4095,213
6309,4095,1218,77
6310,4095,117,177
6312,147,151,4095
6314,4095,249,363
6315,4095,243,202
6317,89,4095,4095
6318,133,4095,4095
6320,4095,4095,179
6322,4095,294,4095
6324,170,4095,193
6325,4095,3213,128
6327,4095,173,2447
6329,146,141,4095
6330,213,390,289
6332,4095,192,176
6334,142,4095,4095
6335,113,4095,109
6337,4095,195,266
6339,266,4095,4095
6340,169,4095,155
6342,4095,2494,157
6344,4095,151,4095
6346,153,133,4095
6347,483,392,272
6349,4095,359,298
6350,106,4095,4095
6352,108,4095,177
6354,4095,172,185
6355,4095,300,4095
6357,149,4095,162
6359,4095,1056,149
6361,142,149,4095
6362,174,139,4095
6364,4095,256,262
6366,4095,4095,1405
6367,112,4095,4095
6369,161,4095,151
6371,4095,197,242
6372,3221,4095,4095
6374,164,4095,129
6376,4095,144,157
6377,4095,151,4095
6379,147,137,4095
6381,4095,277,311
6383,114,4095,4095
6384,109,4095,4095
6386,4095,4095,155
6388,4095,338,356
6389,269,4095,4095
6391,4095,4095,114
6393,4095,152,159
6395,169,153,4095
6396,165,91,4095
6398,4095,277,301
6399,4095,4095,4095
6401,133,4095,4095
6403,4095,4095,147
6405,4095,199,4095
6406,247,4095,4095
6408,4095,4095,144
6410,4095,159,171
6412,149,148,4095
6413,144,155,4095
6415,4095,223,275
6416,4095,4095,4095
6418,133,4095,4095
6420,4095,4095,201
6422,4095,284,4095
6423,208,4095,243
6425,4095,2666,145
6427,4095,151,175
6429,108,138,4095
6430,192,415,4095
6432,4095,197,208
6433,113,4095,4095
6435,101,4095,2046
6437,4095,181,173
6439,268,4095,4095
6440,167,4095,161
6442,4095,2112,96
6444,4095,151,4095
6445,211,155,4095
6447,460,419,4095
6449,4095,256,240
6450,65,4095,4095
6452,80,4095,1832
6454,4095,162,186
6455,4095,286,4095
6457,144,4095,155
6459,4095,569,102
6460,4095,172,1019
6462,153,157,4095
6464,4095,256,290
6465,4095,206,203
6467,95,4095,4095
6469,217,4095,172
6470,4095,201,164
6472,2821,288,4095
6474,155,4095,163
6475,4095,1999,144
6477,4095,157,3279
6479,145,140,4095
6480,193,423,297
6482,4095,187,224
6484,123,4095,4095
6485,112,4095,182
6487,4095,182,180
6489,272,4095,4095
6490,171,4095,176
6492,4095,1743,143
6494,4095,151,4095
6496,144,134,4095
6497,492,406,262
6499,4095,382,265
6500,101,4095,4095
6502,105,4095,161
6504,4095,164,163
6505,4095,315,4095
6507,167,4095,234
6509,4095,496,163
6510,4095,148,4095
6512,171,132,4095
6514,4095,256,290
6516,4095,4095,2058
6517,113,4095,4095
6519,208,4095,144
6521,4095,225,305
6522,906,3788,4095
6524,148,4095,122
6526,4095,144,176
6527,4095,143,4095
6529,149,133,4095
6531,4095,278,309
6532,4095,4095,4095
6534,113,4095,4095
6536,4095,4095,169
6538,4095,332,327
6539,272,4095,4095
6541,4095,4095,113
6543,4095,154,142
6545,151,155,4095
6546,142,131,4095
6548,4095,288,286
6549,4095,4095,4095
6551,128,4095,4095
6553,4095,4095,130
6555,4095,218,4095
6556,241,4095,4095
6558,4095,3216,141
6560,4095,151,170
6562,145,153,4095
6563,250,193,4095
6565,4095,213,240
6567,161,4095,4095
6568,123,4095,4095
6570,4095,4095,167
6572,393,288,4095
6573,207,4095,226
6575,4095,2516,65
6577,4095,159,178
6578,149,158,4095
6580,218,284,4095
6582,4095,187,207
6583,141,4095,4095
6585,125,4095,4095
6587,4095,192,189
6588,4095,291,4095
6590,191,4095,208
6592,4095,1654,129
6594,4095,151,4095
6595,176,150,4095
6597,483,422,4095
6599,4095,1186,279
6600,115,4095,4095
6602,176,4095,187
6604,4095,169,177
6605,4095,304,4095
6607,150,4095,175
6609,4095,390,141
6610,4095,145,4095
6612,152,144,4095
6614,4095,267,241
6615,4095,196,258
6617,109,4095,4095
6619,354,4095,169
6620,4095,182,186
6622,259,302,4095
6624,175,4095,170
6625,4095,1590,162
6627,4095,164,4095
6629,138,145,4095
6631,4095,304,299
6632,4095,185,200
6634,116,4095,4095
6636,4095,4095,149
6637,4095,163,271
6639,243,4095,4095
6641,4095,4095,114
6642,4095,229,144
6644,4095,167,4095
6646,130,144,4095
6647,410,267,299
6649,4095,3325,3606
6651,129,4095,4095
6653,4095,4095,162
6654,4095,234,350
6656,240,4095,4095
6658,4095,4095,125
6659,4095,154,167
6661,240,141,4095
6663,145,163,4095
6664,4095,288,287
6666,4095,4095,4095
6668,132,4095,4095
6670,4095,4095,160
6671,4095,331,4095
6673,294,4095,4095
6675,4095,2501,131
6677,4095,156,177
6678,155,143,4095
6680,245,357,4095
6681,4095,263,282
6683,118,4095,4095
6685,141,4095,4095
6687,4095,172,201
6688,4095,208,4095
6690,157,4095,4095
6692,4095,1712,141
6693,4095,150,186
6695,145,135,4095
6697,450,439,4095
6698,4095,239,200
6700,74,4095,4095
6702,136,4095,4095
6703,4095,4095,192
6705,4095,317,4095
6707,139,4095,165
6709,4095,345,144
6710,4095,142,907
6712,141,141,4095
6714,4095,279,275
6715,4095,235,219
6717,94,4095,4095
6718,118,4095,4095
6720,4095,289,184
6722,294,292,4095
6723,197,4095,214
6725,4095,2272,132
6727,4095,150,797
6729,139,144,4095
6730,179,400,4095
6732,4095,220,183
6733,141,4095,4095
6735,129,4095,1822
6737,4095,176,176
6739,242,4095,4095
6740,165,4095,158
6742,4095,1648,160
6744,3097,149,4095
6745,148,144,4095
6747,448,432,266
6749,4095,4095,240
6750,103,4095,4095
6752,103,4095,165
6754,4095,175,185
6755,4095,542,4095
6757,144,4095,138
6759,4095,293,155
6760,4095,149,4095
6762,137,137,4095
6764,4095,274,300
6766,4095,4095,4095
6767,105,4095,4095
6769,1967,4095,156
6771,4095,285,336
6772,274,4095,4095
6774,163,4095,128
6776,4095,160,154
6777,4095,146,4095
6779,145,138,4095
6781,4095,307,325
6783,120,4095,4095
6784,102,4095,4095
6786,4095,4095,155
6788,4095,313,304
6789,241,4095,4095
6791,4095,4095,115
6793,4095,161,165
6794,158,140,4095
6796,146,135,4095
6798,4095,297,281
6799,4095,4095,4095
6801,89,4095,4095
6803,4095,4095,147
6805,4095,304,4095
6806,239,4095,4095
6808,4095,4095,143
6810,4095,162,167
6812,97,144,4095
6813,158,173,4095
6815,4095,230,278
6816,3344,4095,4095
6818,159,4095,4095
6820,4095,4095,203
6822,351,320,4095
6823,199,4095,858
6825,4095,2625,144
6827,4095,155,189
6828,156,159,4095
6830,213,429,4095
6832,4095,215,187
6833,115,4095,4095
6835,128,4095,4095
6837,4095,165,197
6838,4095,321,4095
6840,159,4095,206
6842,4095,1616,121
6844,2240,155,4095
6845,102,157,4095
6847,419,403,4095
6849,4095,4095,219
6850,103,4095,4095
6852,112,4095,160
6854,4095,159,166
6855,4095,326,4095
6857,139,4095,144
6859,4095,180,180
6860,4095,150,4095
6862,142,138,4095
6864,4095,272,293
6865,4095,178,202
6867,116,4095,4095
6869,2429,4095,174
6871,4095,261,318
6872,272,2374,4095
6874,176,4095,133
6876,4095,139,87
6877,4095,211,4095
6879,186,138,4095
6881,4095,298,310
6882,4095,227,151
6884,112,4095,4095
6886,4095,4095,147
6887,4095,163,256
6889,252,4095,4095
6891,4095,4095,144
6892,4095,202,138
6894,1617,160,4095
6896,142,133,4095
6897,1359,268,295
6899,4095,4095,4095
6901,128,4095,4095
6903,4095,4095,240
6904,4095,305,326
6906,237,4095,4095
6908,4095,4095,123
6910,4095,162,159
6911,234,145,4095
6913,150,162,4095
6914,4095,316,245
6916,1203,4095,4095
6918,126,4095,4095
6920,4095,4095,144
6921,4095,273,4095
6923,208,4095,4095
6925,4095,2866,133
6927,4095,159,176
6928,147,144,4095
6930,320,416,4095
6932,4095,187,188
6933,106,4095,4095
6935,122,4095,4095
6937,4095,186,208
6938,4095,272,4095
6940,174,4095,225
6942,4095,1648,143
6943,4095,146,178
6945,145,154,4095
6947,463,345,4095
6948,4095,231,207
6950,103,4095,4095
6952,147,4095,1796
6954,4095,175,170
6955,4095,323,4095
6957,174,4095,156
6959,4095,235,149
6960,4095,161,1429
6962,142,151,4095
6964,4095,268,291
6965,4095,197,249
6967,90,4095,4095
6969,2699,4095,152
6970,4095,181,176
6972,283,867,4095
6974,167,4095,144
6975,4095,2080,151
6977,4095,149,3375
6979,140,145,4095
6980,247,435,283
6982,4095,180,288
6984,199,4095,4095
6985,129,4095,195
6987,4095,189,181
6989,267,4095,4095
6990,170,4095,169
6992,4095,1712,164
6994,578,150,4095
6995,141,145,4095
6997,439,334,272
6999,4095,4095,169
7000,93,4095,4095
7002,140,4095,195
7004,4095,177,157
7005,4095,272,4095
7007,158,4095,176
7009,4095,242,160
7010,4095,157,4084
7012,144,147,4095
7014,4095,269,290
7015,4095,206,265
7017,106,4095,4095
7019,3102,4095,153
7020,4095,176,166
7022,281,607,4095
7024,177,4095,135
7025,4095,1287,133
7027,4095,156,4095
7029,146,147,4095
7031,4095,290,397
7032,4095,1731,743
7034,182,4095,4095
7036,4095,4095,144
7037,4095,160,319
7039,263,4095,4095
7041,4095,4095,114
7043,4095,144,177
7044,477,145,4095
7046,144,140,4095
7047,4095,271,319
7049,4095,4095,4095
7051,119,4095,4095
7053,4095,4095,144
7054,4095,340,318
7056,243,4095,4095
7058,4095,4095,109
7060,4095,151,179
7061,176,144,4095
7063,176,176,4095
7064,4095,275,263
7066,222,4095,4095
7068,124,4095,4095
7070,4095,4095,226
7071,4095,293,4095
7073,204,4095,4095
7075,4095,2748,140
7077,4095,151,179
7078,141,154,4095
7080,368,432,4095
7081,4095,247,219
7083,128,4095,4095
7085,96,4095,4095
7087,4095,183,176
7088,4095,240,4095
7090,165,4095,4095
7092,4095,1565,80
7093,4095,172,178
7095,150,151,4095
7097,479,321,4095
7098,4095,242,194
7100,88,4095,4095
7102,145,4095,3418
7103,4095,4095,205
7105,4095,304,4095
7107,165,4095,208
7108,4095,2523,144
7110,4095,156,352
7112,145,147,4095
7113,171,410,4095
7115,4095,224,167
7117,98,4095,4095
7118,128,4095,4095
7120,4095,240,173
7122,286,2230,4095
7123,171,4095,163
7125,4095,2460,149
7127,4095,157,2323
7129,144,144,4095
7130,392,438,289
7132,4095,192,249
7133,107,4095,4095
7135,130,4095,288
7137,4095,181,191
7139,274,4095,4095
7140,161,4095,160
7142,4095,1459,154
7144,211,147,4095
7145,140,144,4095
7147,2015,275,263
7149,4095,4095,144
7150,93,4095,4095
7152,144,4095,172
7154,4095,171,183
7155,4095,304,4095
7157,149,4095,174
7159,4095,242,162
7160,4095,166,4095
7162,144,154,4095
7164,4095,256,307
7165,4095,192,231
7167,46,4095,4095
7169,4095,4095,159
7170,4095,170,130
7172,286,2407,4095
7174,204,4095,128
7175,4095,1261,143
7177,4095,166,4095
7179,144,139,4095
7181,4095,277,319
7182,4095,3323,2278
7184,118,4095,4095
7186,4095,4095,142
7187,4095,171,441
7189,272,4095,4095
7191,4095,4095,126
7193,4095,142,155
7194,205,159,4095
7196,151,133,4095
7198,4095,274,330
7199,4095,4095,4095
7201,122,4095,4095
7203,4095,4095,156
7204,4095,423,4095
7206,247,4095,4095
7208,4095,4095,129
7210,4095,147,186
7211,144,144,4095
7213,176,181,4095
7215,4095,209,203
7216,156,4095,4095
7218,119,4095,4095
7220,4095,976,196
7221,4095,319,4095
7223,190,4095,4095
7225,4095,2444,147
7227,4095,149,199
7228,144,130,4095
7230,406,446,4095
7232,4095,186,195
7233,105,4095,4095
7235,140,4095,4095
7237,4095,175,176
7238,4095,290,4095
7240,156,4095,193
7242,4095,1421,146
7243,4095,165,886
7245,144,135,4095
7247,4095,301,4095
7248,4095,191,283
7250,94,4095,4095
7252,154,4095,1819
7254,4095,168,176
7255,4095,295,4095
7257,193,4095,166
7259,4095,208,111
7260,4095,152,3279
7262,136,145,4095
7264,4095,289,278
7265,4095,205,256
7267,112,4095,4095
7269,4095,4095,176
7270,4095,166,175
7272,265,3257,4095
7274,1258,4095,121
7275,4095,752,158
7277,4095,143,4095
7279,129,144,4095
7281,4095,311,359
7282,4095,4095,2409
7284,112,4095,4095
7286,4095,4095,147
7287,4095,141,377
7289,251,4095,4095
7291,4095,4095,113
7293,4095,159,148
7294,175,144,4095
7296,131,150,4095
7298,4095,257,222
7299,4095,4095,4095
7301,126,4095,4095
7303,4095,4095,142
7304,4095,430,4095
7306,219,4095,4095
7308,4095,4095,130
7310,4095,170,173
7311,159,150,4095
7313,160,195,4095
7315,4095,241,179
7316,141,4095,4095
7318,107,4095,4095
7320,4095,367,272
7321,4095,259,4095
7323,176,4095,4095
7325,4095,2499,160
7327,4095,163,263
7328,161,158,4095
7330,400,451,4095
7332,4095,369,217
7333,110,4095,4095
7335,128,4095,4095
7337,4095,165,142
7338,4095,307,4095
7340,144,4095,179
7342,4095,1520,136
7343,4095,171,389
7345,155,144,4095
7347,4095,271,4095
7348,4095,205,295
7350,103,4095,4095
7352,139,4095,201
7354,4095,160,177
7355,4095,252,4095
7357,195,4095,93
7358,4095,2207,222
7360,4095,156,3370
7362,156,144,4095
7364,4095,276,272
7365,4095,220,227
7367,110,4095,4095
7369,4095,4095,170
7370,4095,183,176
7372,346,3998,4095
7374,2608,4095,130
7375,4095,923,150
7377,4095,161,4095
7379,147,130,4095
7381,4095,288,410
7382,4095,4095,2478
7384,128,4095,4095
7386,4095,4095,141
7387,4095,172,415
7389,277,4095,4095
7391,4095,4095,117
7393,4095,144,151
7394,158,144,4095
7396,144,140,4095
7398,4095,237,222
7399,4095,4095,4095
7401,140,4095,4095
7403,4095,4095,157
7404,4095,368,4095
7406,242,4095,4095
7408,4095,4095,121
7410,4095,152,167
7411,149,140,4095
7413,176,186,4095
7415,4095,240,294
7416,138,4095,4095
7418,122,4095,4095
7420,4095,1136,182
7421,4095,230,4095
7423,195,4095,411
7425,4095,3435,141
7427,4095,158,1670
7428,147,155,4095
7430,454,462,4095
7432,4095,411,255
7433,100,4095,4095
7435,116,4095,2295
7437,4095,183,105
7438,4095,317,4095
7440,161,4095,154
7442,4095,1776,136
7444,159,145,4095
7445,144,125,4095
7447,4095,263,304
7448,4095,163,277
7450,97,4095,4095
7452,142,4095,468
7453,4095,176,180
7455,4095,307,4095
7457,217,4095,176
7458,4095,2384,135
7460,4095,174,4095
7462,140,146,4095
7464,4095,290,307
7465,4095,220,217
7467,91,4095,4095
7469,4095,4095,157
7470,4095,176,188
7472,266,4095,4095
7474,3888,4095,126
7475,4095,955,151
7477,4095,157,4095
7479,144,149,4095
7480,462,269,278
7482,4095,1023,93
7484,130,4095,4095
7485,128,4095,178
7487,4095,160,187
7489,266,4095,4095
7490,145,4095,127
7492,4095,1052,144
7494,160,144,4095
7495,144,135,4095
7497,4095,257,314
7499,4095,4095,227
7500,98,4095,4095
7502,155,4095,155
7504,4095,176,176
7505,4095,4095,4095
7507,220,4095,112
7509,4095,175,144
7511,112,147,4095
7512,146,171,4095
7514,4095,285,272
7515,4095,4095,3888
7517,112,4095,4095
7519,4095,4095,144
7521,4095,362,331
7522,247,4095,4095
7524,4095,4095,111
7526,4095,159,158
7528,146,148,4095
7529,139,150,4095
7531,4095,307,301
7533,108,4095,4095
7534,115,4095,4095
7536,4095,4095,171
7538,4095,330,4095
7539,243,4095,4095
7541,4095,4095,127
7543,4095,154,190
7545,139,133,4095
7546,128,163,4095
7548,4095,256,240
7550,97,4095,4095
7551,123,4095,4095
7553,4095,4095,188
7555,4095,290,4095
7556,217,4095,4095
7558,4095,2700,151
7560,4095,150,192
7562,137,144,4095
7563,189,217,4095
7565,4095,257,182
7566,131,4095,4095
7568,111,4095,4095
7570,4095,176,165
7572,265,3446,4095
7573,179,4095,208
7575,4095,2134,138
7577,4095,153,2067
7578,159,145,4095
7580,452,495,4095
7582,4095,220,225
7583,111,4095,4095
7585,118,4095,240
7587,4095,172,194
7588,4095,283,4095
7590,153,4095,177
7592,4095,842,149
7593,4095,225,2483
7595,144,146,4095
7597,4095,263,273
7598,4095,202,302
7600,125,4095,4095
7602,144,4095,176
7604,4095,165,188
7605,4095,287,4095
7607,213,3687,159
7609,4095,160,112
7610,4095,137,4095
7612,144,133,4095
7614,4095,297,290
7615,4095,183,226
7617,109,4095,4095
7619,4095,4095,174
7620,4095,175,176
7622,256,3118,4095
7624,4095,4095,117
7625,4095,372,157
7627,4095,161,4095
7629,135,133,4095
7631,4095,304,314
7632,4095,4095,4095
7634,124,4095,4095
7636,4095,4095,143
7637,4095,227,366
7639,208,4095,4095
7641,4095,4095,128
7643,4095,155,153
7644,162,143,4095
7646,135,153,4095
7648,4095,249,227
7649,4095,4095,4095
7651,100,4095,4095
7653,4095,4095,149
7654,4095,343,4095
7656,217,4095,4095
7658,4095,2919,80
7660,4095,173,177
7661,154,144,4095
7663,167,197,4095
7665,4095,251,214
7666,124,4095,4095
7668,106,4095,4095
7670,4095,176,208
7671,4095,298,4095
7673,174,4095,4095
7675,4095,1927,161
7677,4095,164,2829
7678,158,112,4095
7680,445,458,4095
7682,4095,224,218
7683,97,4095,4095
7685,111,4095,4095
7687,4095,161,189
7688,4095,292,4095
7690,144,4095,169
7692,4095,511,170
7693,4095,160,172
7695,154,141,4095
7697,4095,261,276
7698,4095,233,176
7700,99,4095,4095
7702,151,4095,489
7703,4095,4095,193
7705,4095,283,4095
7707,241,3063,158
7708,4095,1778,159
7710,4095,144,1195
7712,153,139,4095
7713,182,472,4095
7715,4095,197,229
7717,104,4095,4095
7718,105,4095,192
7720,4095,191,177
7722,292,2679,4095
7723,161,4095,177
7725,4095,1222,158
7727,4095,143,4095
7729,145,139,4095
7730,463,384,287
7732,4095,207,295
7733,107,4095,4095
7735,114,4095,176
7737,4095,176,187
7739,268,4095,4095
7740,158,4095,148
7742,4095,496,157
7744,156,151,4095
7745,145,144,4095
7747,4095,238,268
7748,4095,211,323
7750,87,4095,4095
7752,150,4095,350
7753,4095,180,202
7755,4095,274,4095
7757,229,3097,176
7758,4095,1312,144
7760,4095,153,4095
7762,143,149,4095
7764,4095,289,295
7765,4095,186,242
7767,80,4095,4095
7769,4095,4095,151
7770,4095,182,189
7772,271,3103,4095
7774,4095,4095,128
7775,4095,294,144
7777,4095,150,4095
7779,112,149,4095
7780,448,240,285
7782,4095,213,175
7784,115,4095,4095
7785,119,4095,166
7787,4095,177,189
7789,254,4095,4095
7790,157,3092,144
7792,4095,283,168
7794,240,144,4095
7795,139,149,4095
7797,4095,263,300
7799,4095,4095,352
7800,101,4095,4095
7802,119,4095,165
7804,4095,173,256
7805,4095,4095,4095
7807,227,4095,125
7809,4095,165,144
7811,155,141,4095
7812,139,136,4095
7814,4095,299,310
7815,4095,4095,4095
7817,109,4095,4095
7819,4095,4095,173
7821,4095,391,346
7822,281,4095,4095
7824,4095,4095,122
7826,4095,165,149
7828,147,144,4095
7829,130,144,4095
7831,4095,299,304
7833,111,4095,4095
7834,74,4095,4095
7836,4095,4095,159
7838,4095,244,4095
7839,253,4095,4095
7841,4095,2930,117
7843,4095,151,165
7844,146,139,4095
7846,141,169,4095
7848,4095,262,243
7849,4095,4095,4095
7851,112,4095,4095
7853,4095,4095,177
7855,4095,285,4095
7856,202,4095,1804
7858,4095,1898,139
7860,4095,164,213
7862,144,135,4095
7863,187,381,4095
7865,4095,208,186
7867,114,4095,4095
7868,107,4095,4095
7870,4095,176,168
7872,272,2831,4095
7873,164,4095,175
7875,4095,1393,138
7877,4095,155,4095
7879,144,133,4095
7880,452,409,279
7882,4095,228,240
7883,113,4095,4095
7885,109,4095,190
7887,4095,166,205
7888,4095,285,4095
7890,140,4095,182
7892,4095,192,159
7893,4095,156,4095
7895,116,153,4095
7897,4095,243,256
7898,4095,202,294
7900,113,4095,4095
7902,149,4095,149
7904,4095,164,260
7905,4095,311,4095
7907,213,3149,144
7909,4095,150,247
7910,4095,155,4095
7912,138,147,4095
7914,4095,273,317
7915,4095,176,223
7917,115,4095,4095
7919,4095,4095,82
7920,4095,187,194
7922,274,2930,4095
7924,4095,4095,112
7925,4095,158,162
7927,4095,131,4095
7929,142,151,4095
7930,464,246,272
7932,4095,208,182
7934,114,4095,4095
7935,124,4095,162
7937,4095,179,189
7939,285,4095,4095
7940,151,2625,122
7942,4095,179,159
7944,155,140,4095
7945,141,144,4095
7947,4095,258,285
7949,4095,4095,592
7950,97,4095,4095
7952,176,4095,167
7954,4095,181,262
7955,4095,2576,4095
7957,213,3734,113
7959,4095,161,151
7960,4095,157,4095
7962,149,156,4095
7964,4095,301,297
7965,4095,4095,4095
7967,101,4095,4095
7969,4095,4095,150
7971,4095,400,416
7972,270,4095,4095
7974,4095,4095,118
7976,4095,165,158
7978,144,153,4095
7979,143,147,4095
7981,4095,304,260
7983,107,4095,4095
7984,116,4095,4095
7986,4095,4095,125
7988,4095,217,4095
7989,240,4095,4095
7991,4095,2395,106
7993,4095,159,171
7995,100,142,4095
7996,155,170,4095
7998,4095,256,257
8000,174,4095,4095
8001,112,4095,4095
8003,4095,4095,177
8005,4095,302,4095
8006,205,4095,864
8008,4095,1793,148
8010,4095,164,154
8012,128,144,4095
8013,187,304,4095
8015,4095,211,215
8016,126,4095,4095
8018,106,4095,4095
8020,4095,174,185
8022,302,3322,4095
8023,169,4095,194
8025,4095,1123,161
8027,4095,144,4095
8028,163,146,4095
8030,490,450,432
8032,4095,287,304
8033,118,4095,4095
8035,119,4095,336
8037,4095,162,168
8038,4095,255,4095
8040,139,4095,169
8042,4095,173,150
8043,4095,166,2688
8045,144,131,4095
8047,4095,272,281
8048,4095,205,239
8050,105,4095,4095
8052,219,4095,180
8053,4095,177,194
8055,4095,275,4095
8057,189,3255,189
8058,4095,789,167
8060,4095,151,4095
8062,144,135,4095
8063,229,420,236
8065,4095,193,240
8067,127,4095,4095
8068,117,4095,188
8070,4095,129,179
8072,270,3209,4095
8073,131,4095,182
8075,4095,923,151
8077,4095,163,4095
8079,155,132,4095
8080,464,433,263
8082,4095,240,336
8083,64,4095,4095
8085,70,4095,2224
8087,4095,156,191
8088,4095,290,4095
8090,142,4095,186
8092,4095,160,146
8093,4095,144,2965
8095,144,147,4095
8097,4095,256,276
8098,4095,207,277
8100,176,4095,4095
8102,180,4095,173
8103,4095,175,175
8105,2076,299,4095
8107,178,3252,166
8108,4095,669,133
8110,4095,146,4095
8112,149,143,4095
8113,301,432,301
8115,4095,144,251
8117,107,4095,4095
8118,109,4095,149
8120,4095,178,180
8122,295,3611,4095
8123,154,2832,144
8125,4095,560,144
8127,4095,151,4095
8129,162,141,4095
8130,433,413,286
8132,4095,320,310
8133,107,4095,4095
8135,126,4095,157
8137,4095,178,166
8138,4095,277,4095
8140,176,2980,146
8142,4095,165,144
8143,4095,157,4095
8145,135,147,4095
8147,4095,267,285
8148,4095,207,288
8150,96,4095,4095
8152,235,4095,157
8153,4095,176,176
8155,2004,274,4095
8157,207,3328,165
8158,4095,409,159
8160,4095,207,4095
8162,99,141,4095
8163,209,460,304
8165,4095,194,223
8167,112,4095,4095
8168,107,4095,239
8170,4095,187,179
8172,259,3427,4095
8173,163,4095,162
8175,4095,862,148
8177,4095,142,4095
8178,150,150,4095
8180,496,463,294
8182,4095,294,259
8183,74,4095,4095
8185,112,4095,1153
8187,4095,174,208
8188,4095,290,4095
8190,144,3248,181
8192,4095,147,114
8193,4095,167,3327
8195,121,136,4095
8197,4095,272,267
8198,4095,197,258
8200,111,4095,4095
8202,322,4095,126
8203,4095,163,178
8205,465,278,4095
8207,110,3257,160
8208,4095,753,166
8210,4095,168,3434
8212,176,133,4095
8213,178,440,270
8215,4095,197,238
8217,82,4095,4095
8218,131,4095,1565
8220,4095,162,183
8222,277,3520,4095
8223,179,4095,179
8225,4095,735,165
8227,4095,163,4095
8228,142,131,4095
8230,453,431,578
8232,4095,1955,287
8233,101,4095,4095
8235,115,4095,192
8237,4095,155,90
8238,4095,306,4095
8240,142,2661,176
8242,4095,153,243
8243,4095,166,4095
8245,150,143,4095
8247,4095,262,267
8248,4095,198,294
8250,102,4095,4095
8252,270,4095,165
8253,4095,154,161
8255,304,273,4095
8257,173,3712,171
8258,4095,778,150
8260,4095,159,4095
8262,169,133,4095
8263,206,448,197
8265,4095,189,224
8267,112,4095,4095
8268,102,4095,203
8270,4095,165,176
8272,236,4095,4095
8273,170,4095,160
8275,4095,701,165
8277,3566,153,4095
8278,144,128,4095
8280,448,400,264
8282,4095,2176,272
8283,74,4095,4095
8285,112,4095,187
8287,4095,162,272
8288,4095,307,4095
8290,101,2945,169
8292,4095,144,135
8293,4095,149,4095
8295,154,145,4095
8297,4095,256,306
8298,4095,192,277
8300,111,4095,4095
8302,1626,4095,164
8304,4095,271,367
8305,271,298,4095
8307,167,3964,144
8308,4095,355,155
8310,4095,170,4095
8312,175,132,4095
8313,395,368,278
8315,4095,195,258
8317,131,4095,4095
8318,125,4095,147
8320,4095,251,171
8322,272,4095,4095
8323,155,2098,129
8325,4095,327,131
8327,3312,158,4095
8329,139,130,4095
8330,398,352,291
8332,4095,2710,240
8333,99,4095,4095
8335,153,4095,181
8337,4095,158,162
8338,4095,272,4095
8340,135,1970,142
8342,4095,167,135
8343,4095,165,4095
8345,154,113,4095
8347,4095,261,304
8348,4095,191,227
8350,71,4095,4095
8352,1783,4095,182
8354,4095,304,352
8355,284,285,4095
8357,163,4095,122
8358,4095,441,157
8360,4095,172,4095
8362,142,134,4095
8363,462,253,281
8365,4095,198,300
8367,103,4095,4095
8368,118,4095,125
8370,4095,182,176
8372,245,4095,4095
8373,147,2393,144
8375,4095,425,144
8377,2276,157,4095
8379,119,141,4095
8380,409,290,276
8382,4095,4095,309
8383,99,4095,4095
8385,119,4095,151
8387,4095,166,166
8388,4095,255,4095
8390,150,2672,138
8392,4095,157,166
8393,4095,161,4095
8395,144,144,4095
8397,4095,256,281
8398,4095,193,224
8400,87,4095,4095
8402,2172,4095,165
8404,4095,332,360
8405,284,295,4095
8407,174,4095,205
8408,4095,399,147
8410,4095,164,4095
8412,137,132,4095
8413,439,313,278
8415,4095,202,292
8417,80,4095,4095
8418,126,4095,118
8420,4095,171,205
8422,246,4095,4095
8423,148,4095,165
8425,4095,912,147
8427,1840,166,4095
8428,150,140,4095
8430,443,410,381
8432,4095,4095,220
8433,112,4095,4095
8435,143,4095,149
8437,4095,164,138
8438,4095,314,4095
8440,113,3167,130
8442,4095,151,153
8443,4095,171,4095
8445,142,150,4095
8447,4095,274,290
8448,4095,206,178
8450,125,4095,4095
8452,2323,4095,245
8454,4095,280,320
8455,271,2807,4095
8457,170,4095,117
8459,4095,151,141
8460,4095,145,4095
8462,138,134,4095
8464,4095,294,279
8465,4095,4095,4095
8467,112,4095,4095
8469,4095,4095,63
8471,4095,336,343
8472,246,4095,4095
8474,4095,4095,121
8476,4095,161,147
8477,1105,208,4095
8479,130,144,4095
8481,4095,277,273
8482,4095,4095,4095
8484,125,4095,4095
8486,4095,4095,125
8488,4095,318,4095
8489,241,4095,4095
8491,4095,4095,130
8493,4095,169,166
8494,154,143,4095
8496,161,169,4095
8498,4095,243,233
8499,156,4095,4095
8501,109,4095,4095
8503,4095,4095,187
8505,240,1403,4095
8506,191,4095,231
8508,4095,4095,125
8510,4095,153,189
8511,147,140,4095
8513,343,458,4095
8515,4095,4095,131
8516,119,4095,4095
8518,112,4095,1129
8520,4095,182,208
8522,266,4095,4095
8523,172,4095,181
8525,4095,4095,145
8527,389,144,4095
8528,141,112,4095
8530,397,373,287
8532,4095,4095,159
8533,97,4095,4095
8535,144,4095,222
8537,4095,179,155
8538,4095,298,4095
8540,154,4095,167
8542,4095,2464,144
8543,4095,157,4095
8545,91,145,4095
8547,4095,267,293
8548,4095,4095,139
8550,93,4095,4095
8552,930,4095,163
8553,4095,4095,155
8555,273,4095,4095
8557,158,4095,134
8558,4095,4095,128
8560,4095,116,4095
8562,145,144,4095
8564,4095,281,309
8565,4095,4095,2442
8567,112,4095,4095
8569,4095,4095,176
8571,4095,208,4095
8572,271,4095,4095
8574,4095,4095,83
8576,4095,4095,114
8577,151,111,4095
8579,150,134,4095
8581,4095,256,210
8582,4095,4095,4095
8584,113,4095,4095
8586,4095,4095,177
8588,4095,379,4095
8589,208,4095,1232
8591,4095,4095,112
8593,4095,4095,4095
8595,160,139,4095
8596,165,470,4095
8598,4095,4095,161
8600,112,4095,4095
8601,121,4095,4095
8603,4095,4095,240
8605,247,4095,4095
8607,153,4095,144
8608,4095,4095,135
8610,4095,145,4095
8612,140,137,4095
8613,448,234,4095
8615,4095,4095,219
8617,112,4095,4095
8619,4095,4095,4095
8620,4095,123,4095
8622,238,4095,4095
8624,4095,1317,169
8626,4095,127,4095
8627,158,141,4095
8629,137,146,4095
8631,4095,219,4095
8632,4095,4095,4095
8634,118,4095,4095
8636,4095,4095,4095
8638,4095,318,4095
8639,205,182,4095
8641,4095,102,4095
8643,4095,112,4095
8645,146,145,4095
8646,144,311,4095
8648,4095,259,4095
8650,118,4095,4095
8651,110,4095,4095
8653,4095,109,4095
8655,256,255,4095
8656,175,158,4095
8658,4095,103,4095
8660,126,150,4095
8661,143,144,4095
8663,387,304,4095
8665,4095,4095,4095
8667,114,4095,4095
8668,107,4095,4095
8670,4095,121,4095
8672,193,259,4095
8673,149,154,4095
8675,4095,113,4095
8677,145,138,4095
8679,74,164,4095
8680,4095,130,4095
8682,126,4095,4095
8684,112,4095,4095
8685,146,4095,4095
8687,4095,114,4095
8689,175,2584,4095
8690,144,121,4095
8692,4095,113,4095
8694,144,154,4095
8696,189,198,4095
8697,4095,299,4095
8699,148,4095,4095
8701,67,4095,4095
8702,165,4095,4095
8704,4095,241,4095
8706,148,4095,4095
8708,4095,112,4095
8709,4095,113,4095
8711,204,138,4095
8713,324,477,4095
8714,4095,409,4095
8716,116,4095,4095
8718,105,4095,4095
8719,4095,4095,4095
8721,4095,4095,4095
8723,127,4095,4095
8725,4095,4095,4095
8727,153,155,4095
8728,144,160,4095
8730,3962,140,4095
8732,214,4095,4095
8733,97,4095,4095
8735,169,4095,4095
8737,4095,4095,4095
8739,205,4095,4095
8740,122,4095,4095
8742,4095,4095,4095
8744,132,1200,4095
8746,169,208,4095
8747,4095,4095,4095
8749,157,4095,4095
8751,111,4095,4095
8753,4095,4095,4095
8754,4095,4095,4095
8756,155,4095,4095
8758,4095,4095,4095
8760,121,2021,4095
8762,158,142,4095
8763,485,450,4095
8765,4095,4095,4095
8767,155,4095,4095
8768,121,4095,4095
8770,4095,514,4095
8772,220,4095,4095
8774,3136,4095,4095
8775,4095,118,4095
8777,160,151,4095
8779,134,157,4095
8781,4095,4095,4095
8782,4095,4095,4095
8784,145,4095,4095
8786,4095,4095,4095
8788,4095,349,4095
8789,190,2320,4095
8791,4095,111,4095
8793,4095,117,4095
8795,149,144,4095
8796,142,286,4095
8798,4095,169,4095
8800,148,4095,4095
8801,134,4095,4095
8803,4095,143,4095
8805,273,243,4095
8807,138,141,4095
8808,4095,91,4095
8810,183,144,4095
8811,147,137,4095
8813,353,593,4095
8815,4095,226,4095
8817,144,4095,4095
8818,112,4095,4095
8820,4095,124,4095
8822,234,240,4095
8823,169,144,4095
8825,4095,103,4095
8827,159,132,4095
8828,143,143,4095
8830,347,314,4095
8832,4095,288,4095
8833,139,4095,4095
8835,162,160,4095
8837,4095,109,4095
8839,186,225,4095
8840,144,128,4095
8842,4095,112,4095
8844,141,144,4095
8845,145,137,4095
8847,4095,139,4095
8849,272,180,4095
8850,125,153,4095
8852,168,144,4095
8854,4095,119,4095
8855,257,236,4095
8857,135,128,4095
8859,4095,102,4095
8860,144,204,4095
8862,146,140,4095
8864,4095,176,4095
8865,4095,307,4095
8867,159,162,4095
8869,129,112,4095
8870,4095,118,4095
8872,242,226,4095
8874,138,139,4095
8875,4095,112,4095
8877,144,149,4095
8879,138,129,4095
8881,4095,197,4095
8882,229,193,4095
8884,146,189,4095
8886,2559,125,4095
8887,4095,107,4095
8889,210,214,4095
8891,4095,91,4095
8892,4095,112,4095
8894,143,131,4095
8896,145,147,4095
8897,4095,282,4095
8899,194,195,4095
8901,144,151,4095
8902,144,116,4095
8904,4095,103,4095
8906,178,161,4095
8907,141,127,4095
8909,4095,112,4095
8911,138,145,4095
8912,144,175,4095
8914,4095,206,4095
8916,158,175,4095
8917,165,169,4095
8919,144,135,4095
8921,4095,303,4095
8923,66,140,4095
8924,3039,100,4095
8926,4095,127,4095
8928,142,144,4095
8929,143,177,4095
8931,4095,161,4095
8933,154,143,4095
8934,159,158,4095
8936,4095,117,4095
8938,261,256,4095
8939,197,161,4095
8941,4095,97,4095
8943,144,144,4095
8944,135,131,4095
8946,235,246,4095
8948,4095,186,4095
8949,206,176,4095
8951,161,146,4095
8953,4095,134,4095
8954,4095,303,4095
8956,153,144,4095
8958,4095,100,4095
8959,4095,128,4095
8961,147,151,4095
8963,217,142,4095
8964,4095,159,4095
8966,201,167,4095
8968,147,173,4095
8969,530,94,4095
8971,4095,339,4095
8973,141,138,4095
8974,2124,98,4095
8976,225,133,4095
8978,129,142,4095
8979,193,176,4095
8981,4095,151,4095
8983,156,175,4095
8984,162,155,4095
8986,4095,122,4095
8988,320,235,4095
8989,178,143,4095
8991,4095,111,4095
8993,139,144,4095
8994,144,100,4095
8996,156,165,4095
8998,4095,190,4095
9000,153,150,4095
9001,149,155,4095
9003,4095,119,4095
9005,214,215,4095
9006,144,128,4095
9008,4095,106,4095
9010,144,138,4095
9011,134,144,4095
9013,264,203,4095
9015,192,240,4095
9016,173,144,4095
9018,157,153,4095
9019,159,128,4095
9021,257,234,4095
9023,123,128,4095
9024,274,113,4095
9026,133,144,4095
9028,144,129,4095
9029,144,193,4095
9031,4095,153,4095
9033,146,151,4095
9034,180,151,4095
9036,1687,160,4095
9038,233,211,4095
9039,140,131,4095
9041,2574,111,4095
9043,151,134,4095
9044,140,130,4095
9046,180,147,4095
9048,4095,371,4095
9050,166,165,4095
9051,185,149,4095
9053,4095,138,4095
9055,217,201,4095
9056,139,128,4095
9058,1520,127,4095
9060,135,141,4095
9061,144,129,4095
9063,155,206,4095
9065,258,235,4095
9066,181,169,4095
9068,136,144,4095
9069,145,145,4095
9071,165,217,4095
9073,130,138,4095
9074,153,120,4095
9076,130,146,4095
9078,129,132,4095
9079,147,233,4095
9081,4095,165,4095
9083,158,160,4095
9084,152,162,4095
9086,277,171,4095
9088,214,225,4095
9089,156,144,4095
9091,619,131,4095
9093,144,129,4095
9094,131,145,4095
9096,196,142,4095
9098,498,530,4095
9099,198,153,4095
9101,157,148,4095
9103,4095,135,4095
9104,373,237,4095
9106,128,128,4095
9108,351,131,4095
9109,139,135,4095
9111,149,130,4095
9113,169,157,4095
9114,4095,147,4095
9116,172,150,4095
9118,168,179,4095
9119,157,151,4095
9121,231,236,4095
9123,131,142,4095
9124,151,140,4095
9126,145,144,4095
9127,144,145,4095
9129,210,224,4095
9131,4095,144,4095
9132,174,193,4095
9134,163,206,4095
9136,1719,155,4095
9138,192,225,4095
9139,146,144,4095
9141,2223,118,4095
9143,150,131,4095
9144,133,150,4095
9146,206,158,4095
9148,464,325,4095
9149,226,224,4095
9151,174,160,4095
9152,142,157,4095
9154,284,260,4095
9156,139,128,4095
9157,133,128,4095
9159,146,129,4095
9161,132,142,4095
9162,144,233,4095
9164,4095,150,4095
9166,176,187,4095
9167,144,172,4095
9169,152,157,4095
9171,306,217,4095
9172,172,144,4095
9174,1044,126,4095
9176,132,135,4095
9177,144,143,4095
9179,299,320,4095
9181,4095,163,4095
9182,187,210,4095
9184,172,287,4095
9186,4095,143,4095
9187,394,240,4095
9189,133,141,4095
9191,2784,111,4095
9192,133,139,4095
9194,155,135,4095
9196,201,165,4095
9197,4095,146,4095
9199,195,175,4095
9201,147,159,4095
9202,131,144,4095
9204,240,236,4095
9206,141,138,4095
9207,147,64,4095
9209,144,144,4095
9211,128,128,4095
9212,128,173,4095
9214,4095,154,4095
9216,153,163,4095
9217,145,173,4095
9219,177,135,4095
9221,219,225,4095
9222,167,158,4095
9224,2204,120,4095
9226,139,129,4095
9227,131,139,4095
9229,386,310,4095
9231,4095,197,4095
9232,202,217,4095
9234,178,171,4095
9236,4095,150,4095
9237,464,249,4095
9239,143,128,4095
9241,3511,114,4095
9242,142,142,4095
9244,144,144,4095
9246,192,156,4095
9247,4095,161,4095
9249,250,193,4095
9251,206,143,4095
9252,126,125,4095
9254,256,227,4095
9256,134,135,4095
9257,165,108,4095
9259,135,142,4095
9261,131,128,4095
9262,120,234,4095
9264,4095,144,4095
9266,167,149,4095
9267,131,142,4095
9269,2517,118,4095
9271,228,222,4095
9272,155,133,4095
9274,3227,111,4095
9276,144,144,4095
9277,139,144,4095
9279,410,322,4095
9281,4095,134,4095
9282,203,230,4095
9284,194,279,4095
9286,4095,138,4095
9287,368,232,4095
9289,144,143,4095
9291,2473,128,4095
9292,147,156,4095
9294,129,144,4095
9296,179,139,4095
9297,4095,144,4095
9299,183,221,4095
9301,162,141,4095
9302,138,158,4095
9304,251,245,4095
9306,129,126,4095
9307,286,112,4095
9309,142,130,4095
9311,130,129,4095
9312,119,368,4095
9314,4095,158,4095
9316,173,165,4095
9317,129,208,4095
9319,4095,128,4095
9321,240,212,4095
9322,155,133,4095
9324,3721,105,4095
9326,141,143,4095
9327,138,127,4095
9329,313,229,4095
9331,4095,432,4095
9332,153,157,4095
9334,175,125,4095
9336,4095,144,4095
9338,203,198,4095
9339,130,134,4095
9341,2416,114,4095
9343,145,130,4095
9344,134,89,4095
9346,194,182,4095
9347,4095,172,4095
9349,192,173,4095
9351,148,166,4095
9352,224,97,4095
9354,226,240,4095
9356,142,129,4095
9357,1902,113,4095
9359,145,134,4095
9361,131,141,4095
9362,133,437,4095
9364,4095,173,4095
9366,187,161,4095
9367,163,191,4095
9369,4095,112,4095
9371,213,238,4095
9372,151,135,4095
9374,4095,122,4095
9376,144,135,4095
9377,139,140,4095
9379,471,336,4095
9381,429,389,4095
9382,176,168,4095
9384,211,160,4095
9386,4095,197,4095
9387,235,213,4095
9389,137,128,4095
9391,4095,112,4095
9392,146,140,4095
9394,140,130,4095
9396,168,147,4095
9397,4095,207,4095
9399,240,146,4095
9401,164,173,4095
9402,3725,133,4095
9404,241,211,4095
9406,129,135,4095
9407,4095,123,4095
9409,139,144,4095
9411,133,125,4095
9413,4095,199,4095
9414,4095,416,4095
9416,142,134,4095
9418,196,187,4095
9419,4095,156,4095
9421,209,209,4095
9423,149,129,4095
9424,4095,134,4095
9426,151,138,4095
9428,131,134,4095
9429,459,193,4095
9431,320,234,4095
9433,130,145,4095
9434,179,162,4095
9436,4095,160,4095
9438,193,193,4095
9439,144,122,4095
9441,1392,138,4095
9443,131,130,4095
9444,137,122,4095
9446,171,161,4095
9448,208,214,4095
9449,137,139,4095
9451,155,161,4095
9453,4095,181,4095
9454,219,229,4095
9456,138,137,4095
9458,143,134,4095
9459,144,137,4095
9461,121,131,4095
9463,4095,320,4095
9464,4095,229,4095
9466,130,140,4095
9468,194,181,4095
9469,4095,141,4095
9471,208,218,4095
9473,150,127,4095
9474,4095,131,4095
9476,145,135,4095
9478,125,133,4095
9479,330,187,4095
9481,217,229,4095
9483,136,138,4095
9484,113,163,4095
9486,4095,181,4095
9488,199,176,4095
9489,144,130,4095
9491,768,129,4095
9493,123,149,4095
9494,129,111,4095
9496,183,190,4095
9498,199,208,4095
9499,146,127,4095
9501,147,145,4095
9503,4095,399,4095
9504,208,225,4095
9506,174,176,246
9508,139,135,4095
9509,125,142,4095
9511,122,126,4095
9513,4095,230,4095
9514,4095,262,213
9516,130,131,4095
9518,211,183,4095
9519,4095,135,4095
9521,209,215,4095
9523,991,160,208
9524,4095,109,4095
9526,144,128,4095
9528,128,125,4095
9529,445,272,4095
9531,225,229,187
9532,144,133,4095
9534,151,139,4095
9536,4095,179,4095
9537,231,208,4095
9539,176,154,169
9541,1976,144,4095
9542,140,144,4095
9544,124,128,4095
9546,4095,187,4095
9547,4095,366,240
9549,131,147,4095
9551,146,153,148
9552,4095,144,4095
9554,218,223,4095
9556,173,166,218
9557,4095,136,2384
9559,142,131,4095
9561,127,124,4095
9562,128,432,4095
9564,4095,186,243
9566,141,150,4095
9567,144,138,4095
9569,4095,129,4095
9571,178,197,4095
9572,170,162,178
9574,4095,144,1429
9576,131,134,4095
9577,128,119,4095
9579,432,301,4095
9580,4095,237,305
9582,133,135,4095
9584,158,139,4095
9585,4095,97,4095
9587,255,208,4095
9589,169,157,178
9590,4095,128,2704
9592,138,127,4095
9594,133,120,4095
9595,130,123,4095
9597,4095,244,223
9599,145,128,4095
9600,134,133,4095
9602,4095,94,4095
9604,140,204,4095
9605,144,151,188
9607,4095,110,4095
9609,140,143,4095
9610,144,95,4095
9612,115,126,4095
9613,4095,197,4095
9615,196,166,4095
9617,150,163,4095
9618,1077,113,4095
9620,185,237,4095
9622,144,142,4095
9623,4095,117,4095
9625,159,132,4095
9627,123,126,4095
9628,112,133,4095
9630,4095,179,4095
9632,189,171,4095
9634,271,174,4095
9635,4095,103,4095
9637,225,213,4095
9639,131,128,4095
9640,4095,114,4095
9642,129,129,4095
9644,135,117,4095
9645,128,128,4095
9647,4095,187,4095
9649,253,234,4095
9650,147,119,4095
9652,4095,107,4095
9654,199,190,4095
9655,138,130,4095
9657,4095,107,4095
9659,146,144,4095
9660,161,124,4095
9662,126,126,4095
9664,670,530,4095
9665,331,203,4095
9667,151,144,4095
9669,4095,159,4095
9670,223,204,4095
9672,227,128,4095
9674,4095,121,4095
9675,143,112,4095
9677,121,129,4095
9679,322,265,4095
9680,4095,151,4095
9682,191,172,4095
9684,155,144,4095
9685,4095,89,4095
9687,211,188,4095
9689,133,142,4095
9690,4095,107,4095
9692,134,144,4095
9694,141,117,4095
9695,119,114,4095
9697,4095,158,4095
9699,148,144,4095
9700,139,134,4095
9702,4095,143,4095
9704,194,209,4095
9705,139,141,4095
9707,4095,109,4095
9709,144,134,4095
9710,128,121,4095
9712,67,121,4095
9714,475,522,4095
9715,273,189,4095
9717,128,144,4095
9719,4095,149,4095
9720,225,209,4095
9722,131,144,4095
9724,4095,103,4095
9725,100,129,4095
9727,125,130,4095
9729,359,252,4095
9730,4095,174,4095
9732,177,164,4095
9734,179,140,4095
9735,4095,176,4095
9737,206,208,4095
9739,135,126,4095
9740,4095,111,4095
9742,139,138,4095
9744,61,120,4095
9745,143,121,4095
9747,4095,165,4095
9749,173,153,4095
9750,137,145,4095
9752,4095,149,4095
9754,186,202,4095
9755,142,128,4095
9757,4095,112,4095
9759,111,139,4095
9760,145,133,4095
9762,128,128,4095
9764,560,400,4095
9765,373,196,4095
9767,154,144,4095
9769,4095,155,4095
9770,211,207,4095
9772,135,126,4095
9774,4095,101,4095
9775,131,138,4095
9777,132,126,4095
9779,276,233,4095
9780,4095,233,4095
9782,211,174,4095
9784,186,156,4095
9785,4095,137,4095
9787,272,192,4095
9789,144,134,4095
9790,4095,73,4095
9792,143,147,4095
9794,79,125,4095
9795,139,116,4095
9797,4095,144,4095
9799,154,189,4095
9800,155,135,4095
9802,4095,156,4095
9804,202,199,4095
9805,142,129,4095
9807,4095,112,4095
9809,133,141,4095
9810,135,113,4095
9812,120,125,4095
9814,430,345,4095
9815,397,194,4095
9817,144,201,4095
9819,4095,147,4095
9820,210,185,4095
9822,138,139,4095
9824,4095,105,4095
9825,144,146,4095
9827,119,118,4095
9829,150,128,4095
9830,4095,142,4095
9832,189,164,4095
9834,168,150,4095
9835,4095,144,4095
9837,208,208,4095
9839,128,131,4095
9840,4095,65,4095
9842,125,143,4095
9844,128,115,4095
9845,141,120,4095
9847,4095,138,4095
9849,153,149,4095
9850,144,149,4095
9852,4095,135,4095
9854,192,199,4095
9855,141,139,4095
9857,4095,112,4095
9859,135,130,4095
9861,128,128,4095
9862,149,145,4095
9864,497,347,4095
9865,240,157,4095
9867,157,145,4095
9869,4095,160,4095
9871,176,160,4095
9872,128,131,4095
9874,4095,108,4095
9876,118,142,4095
9877,133,115,4095
9879,1085,221,4095
9881,214,176,4095
9882,196,161,4095
9884,194,163,4095
9886,4095,176,4095
9887,205,218,4095
9889,137,122,4095
9891,836,132,4095
9892,141,149,4095
9894,128,115,4095
9896,4095,219,4095
9897,4095,527,4095
9899,252,185,4095
9901,1585,131,4095
9902,4095,146,4095
9904,208,198,4095
9906,4095,98,4095
9907,4095,122,4095
9909,146,144,4095
9911,115,132,4095
9912,124,214,4095
9914,405,278,4095
9916,158,169,4095
9917,130,274,4095
9919,4095,171,4095
9921,240,180,4095
9922,131,125,4095
9924,4095,100,4095
9926,128,142,4095
9927,139,123,4095
9929,4095,102,4095
9931,194,174,4095
9932,148,151,4095
9934,255,160,4095
9936,4095,183,4095
9938,152,156,4095
9939,143,124,4095
9941,4095,113,4095
9943,137,131,4095
9944,199,118,4095
9946,4095,221,4095
9948,172,172,4095
9949,95,144,4095
9951,4095,112,4095
9953,2388,443,4095
9954,243,213,4095
9956,4095,114,4095
9958,322,129,4095
9959,135,139,4095
9961,78,114,4095
9963,4095,247,4095
9964,331,192,4095
9966,134,126,4095
9968,4095,169,4095
9969,4095,143,4095
9971,189,192,4095
9973,4095,99,4095
9974,4095,115,4095
9976,143,129,4095
9978,129,132,4095
9979,4095,301,4095
9981,208,181,1617
9983,145,133,4095
9984,181,111,4095
9986,4095,206,4095
9988,172,159,4095
9989,246,131,221
9991,4095,107,4095
9993,143,145,4095
9994,135,157,4095
9996,4095,357,326
9998,181,182,189
9999,145,141,4095
10001,4095,150,233
10003,4095,195,4095
10004,215,179,203
10006,4095,145,154
10008,4095,124,4095
10010,144,128,4095
10011,143,128,4095
10013,4095,258,231
10015,176,161,4095
10017,148,156,1755
10018,4095,139,4095
10020,400,245,4095
10022,179,979,160
10024,4095,4095,144
10025,166,4095,4095
10027,144,130,4095
10029,4095,230,4095
10031,206,185,196
10032,161,144,4095
10034,4095,144,217
10036,4095,197,4095
10038,157,4095,183
10039,4095,4095,153
10041,4095,4095,4095
10043,149,4095,4095
10045,151,178,4095
10047,4095,4095,158
10049,140,150,4095
10050,155,176,208
10052,4095,93,4095
10054,236,4095,4095
10055,148,4095,53
10057,4095,4095,187
10059,139,4095,4095
10061,125,144,4095
10063,4095,4095,256
10064,201,1838,197
10066,145,150,4095
10068,4095,191,1393
10070,416,339,4095
10071,202,4095,164
10073,4095,4095,133
10075,4095,4095,4095
10077,154,156,4095
10079,4095,1072,4095
10080,4095,1074,195
10082,161,133,4095
10084,4095,142,203
10086,4095,197,4095
10088,139,4095,170
10089,2419,4095,261
10091,4095,4095,4095
10093,181,160,4095
10095,154,161,4095
10097,4095,242,222
10098,190,171,4095
10100,128,147,4095
10102,4095,80,4095
10103,4095,256,4095
10105,83,1684,170
10107,4095,151,150
10109,145,151,4095
10110,225,148,4095
10112,4095,243,4095
10114,635,203,193
10116,138,139,4095
10117,1285,209,195
10119,4095,266,4095
10121,174,208,224
10123,4095,139,174
10124,4095,112,4095
10126,149,145,4095
10128,186,138,4095
10130,4095,208,245
10131,206,182,239
10133,144,143,4095
10135,4095,118,4095
10137,281,254,4095
10138,247,191,192
10140,4095,151,4095
10142,147,137,4095
10144,141,127,4095
10145,156,129,4095
10147,4095,225,208
10149,149,133,4095
10150,132,112,4095
10152,4095,166,4095
10154,226,228,4095
10156,4095,115,3082
10158,4095,113,4095
10159,151,139,4095
10161,124,142,4095
10163,4095,205,4095
10165,160,160,4095
10166,132,114,4095
10168,4095,125,4095
10170,386,275,4095
10172,141,141,4095
10173,4095,102,4095
10175,4095,142,4095
10177,133,192,4095
10179,4095,246,4095
10181,167,173,4095
10182,167,142,4095
10184,4095,110,4095
10186,4095,212,4095
10188,173,164,4095
10190,4095,112,4095
10191,4095,96,4095
10193,135,142,4095
10195,114,147,4095
10197,4095,174,4095
10198,181,200,4095
10200,144,142,4095
10202,4095,98,4095
10204,234,229,4095
10205,142,141,4095
10207,4095,106,4095
10209,143,141,4095
10211,139,130,4095
10212,4095,185,4095
10214,170,195,4095
10216,175,144,4095
10218,4095,145,4095
10219,4095,208,4095
10221,192,157,4095
10223,4095,109,4095
10225,3773,134,4095
10227,121,130,4095
10228,144,167,4095
10230,4095,178,4095
10232,160,153,4095
10234,4095,107,4095
10236,4095,205,4095
10237,239,240,4095
10239,1296,96,4095
10241,4095,109,4095
10243,143,139,4095
10244,125,135,4095
10246,4095,223,4095
10248,227,181,4095
10250,137,139,4095
10251,4095,115,4095
10253,4095,292,4095
10255,146,172,4095
10257,4095,112,4095
10259,141,137,4095
10260,134,133,4095
10262,4095,368,4095
10264,176,171,4095
10266,161,144,4095
10267,239,112,4095
10269,4095,197,4095
10271,192,188,4095
10273,4095,94,4095
10274,4095,102,4095
10276,157,130,4095
10278,133,147,4095
10280,4095,153,4095
10282,167,159,4095
10283,152,144,4095
10285,4095,113,4095
10287,243,240,4095
10289,1910,112,4095
10290,4095,100,4095
10292,143,144,4095
10294,166,128,4095
10296,4095,215,4095
10298,219,174,4095
10299,145,128,4095
10301,4095,118,4095
10303,4095,249,4095
10305,155,151,4095
10306,4095,125,4095
10308,4095,113,4095
10310,143,141,4095
10312,4095,141,4095
10314,167,197,4095
10315,160,143,4095
10317,202,147,4095
10319,4095,176,4095
10321,204,192,4095
10322,153,112,4095
10324,4095,98,4095
10326,151,143,4095
10328,154,170,4095
10329,4095,217,4095
10331,255,254,3979
10333,130,140,4095
10335,4095,110,4095
10336,4095,362,4095
10338,166,160,198
10340,4095,160,4095
10342,176,150,4095
10343,146,140,4095
10345,4095,100,4095
10347,4095,230,208
10349,128,139,4095
10350,148,118,165
10352,4095,82,4095
10354,218,4095,4095
10356,4095,4095,170
10357,4095,4095,4095
10359,183,4095,4095
10361,174,4095,4095
10363,4095,4095,206
10365,144,4095,4095
10367,4095,4095,128
10369,4095,1248,4095
10370,251,4095,4095
10372,4095,4095,144
10374,4095,4095,145
10376,112,4095,4095
10378,4095,4095,4095
10380,4095,4095,435
10381,205,4095,1154
10383,4095,4095,151
10385,4095,4095,4095
10387,173,4095,198
10389,4095,4095,135
10391,4095,4095,4095
10392,113,4095,4095
10394,4095,4095,4095
10396,4095,4095,320
10398,187,4095,4095
10400,4095,4095,4095
10402,4095,4095,4095
10404,158,4095,144
10405,4095,4095,197
10407,4095,4095,4095
10409,109,4095,4095
10411,4095,4095,4095
10413,4095,4095,262
10415,4095,4095,4095
10417,4095,4095,4095
10419,4095,4095,4095
10420,4095,4095,4095
10422,177,4095,4095
10424,4095,4095,4095
10426,4095,4095,4095
10428,112,4095,4095
10430,4095,4095,4095
10432,102,4095,4095
10434,4095,4095,4095
10435,4095,4095,4095
10437,4095,4095,4095
10439,4095,4095,4095
10441,4095,4095,4095
10443,2689,4095,4095
10445,555,4095,4095
10447,4095,4095,4095
10449,101,4095,4095
10451,4095,4095,4095
10452,4095,4095,4095
10454,197,4095,4095
10456,4095,4095,4095
10458,4095,4095,4095
10460,122,4095,4095
10462,4095,4095,4095
10464,4095,4095,4095
10466,99,4095,4095
10467,4095,4095,4095
10469,4095,4095,4095
10471,189,4095,4095
10473,4095,4095,4095
10475,4095,4095,4095
10477,121,4095,4095
10479,4095,4095,4095
10481,128,4095,4095
10482,94,4095,4095
10484,4095,4095,4095
10486,4095,4095,4095
10488,183,4095,4095
10490,4095,4095,4095
10492,4095,4095,4095
10494,123,4095,4095
10495,467,4095,4095
10497,4095,4095,4095
10499,93,4095,4095
10501,4095,4095,4095
10503,4095,4095,4095
10505,143,4095,4095
10507,4095,4095,4095
10508,4095,4095,4095
10510,116,4095,4095
10512,4095,4095,4095
10514,4095,4095,4095
10516,91,4095,4095
10518,4095,4095,4095
10520,4095,4095,4095
10522,112,4095,4095
10523,4095,4095,4095
10525,4095,4095,4095
10527,122,4095,4095
10529,4095,4095,4095
10531,112,4095,4095
10533,96,4095,4095
10534,4095,4095,4095
10536,4095,4095,4095
10538,191,4095,4095
10540,4095,4095,4095
10542,4095,4095,4095
10544,110,4095,4095
10546,4095,4095,4095
10548,104,4095,4095
10549,97,4095,4095
10551,4095,4095,4095
10553,4095,4095,4095
10555,153,4095,4095
10557,4095,4095,4095
10559,4095,4095,4095
10561,109,4095,4095
10563,4095,4095,4095
10564,4095,4095,4095
10566,93,4095,4095
10568,4095,4095,4095
10570,4095,4095,4095
10572,125,4095,4095
10574,4095,4095,4095
10576,4095,4095,4095
10578,144,4095,4095
10579,4095,4095,4095
10581,127,4095,4095
10583,96,4095,4095
10585,4095,4095,4095
10587,4095,4095,4095
10589,129,4095,4095
10590,4095,4095,4095
10592,4095,4095,4095
10594,117,4095,4095
10596,4095,4095,4095
10598,117,4095,4095
10600,97,4095,4095
10602,4095,4095,4095
10603,4095,4095,4095
10605,187,4095,4095
10607,4095,4095,4095
10609,4095,4095,4095
10611,113,4095,4095
10613,4095,4095,4095
10615,116,4095,4095
10617,96,4095,4095
10618,4095,4095,4095
10620,4095,4095,4095
10622,175,4095,4095
10624,4095,4095,4095
10626,4095,4095,4095
10628,142,4095,4095
10630,4095,4095,4095
10632,112,4095,4095
10633,99,4095,4095
10635,4095,4095,4095
10637,4095,4095,4095
10639,194,4095,4095
10641,4095,4095,4095
10643,4095,4095,4095
10645,129,4095,4095
10646,4095,4095,4095
10648,4095,4095,4095
10650,102,4095,4095
10652,4095,4095,4095
10654,4095,4095,4095
10656,171,4095,4095
10658,4095,4095,4095
10660,4095,4095,4095
10661,119,4095,4095
10663,4095,4095,4095
10665,4095,4095,4095
10667,262,4095,4095
10669,4095,4095,4095
10671,4095,4095,4095
10673,131,4095,4095
10675,4095,4095,4095
10676,4095,4095,4095
10678,149,4095,4095
10680,4095,4095,4095
10682,496,4095,4095
10684,239,4095,4095
10686,4095,4095,4095
10688,4095,4095,4095
10690,136,4095,4095
10691,4095,4095,4095
10693,4095,4095,4095
10695,135,4095,4095
10697,4095,4095,4095
10699,144,4095,4095
10701,4095,4095,4095
10703,4095,4095,4095
10705,4095,4095,4095
10707,4095,4095,4095
10708,4095,4095,4095
10710,4095,4095,4095
10712,133,4095,4095
10714,4095,4095,4095
10716,147,4095,4095
10718,4095,4095,4095
10720,4095,4095,4095
10722,4095,4095,4095
10724,4095,4095,4095
10725,4095,4095,4095
10727,4095,4095,4095
10729,153,4095,4095
10731,4095,4095,4095
10733,121,4095,4095
10735,4095,4095,4095
10737,4095,4095,4095
10739,233,4095,4095
10740,143,4095,4095
10742,4095,4095,4095
10744,4095,4095,4095
10746,278,4095,4095
10748,4095,4095,4095
10750,147,4095,4095
10752,4095,4095,4095
10754,4095,4095,4095
10755,4095,4095,4095
10757,4095,4095,4095
10759,4095,4095,4095
10761,4095,4095,4095
10763,4095,4095,4095
10765,4095,4095,4095
10767,192,4095,4095
10769,4095,4095,4095
10771,4095,4095,4095
10773,155,4095,4095
10774,4095,4095,4095
10776,4095,4095,4095
10778,144,4095,4095
10780,4095,4095,4095
10782,4095,4095,4095
10784,139,4095,4095
10786,4095,4095,4095
10788,4095,4095,4095
10790,141,4095,4095
10791,4095,4095,4095
10793,4095,4095,4095
10795,137,4095,4095
10797,4095,4095,4095
10799,2713,4095,4095
10801,132,4095,4095
10803,4095,4095,4095
10805,4095,4095,4095
10806,183,4095,4095
10808,4095,4095,4095
10810,4095,4095,4095
10812,146,4095,4095
10814,4095,4095,4095
10816,154,4095,4095
10818,130,4095,4095
10819,4095,4095,4095
10821,4095,4095,4095
10823,149,4095,4095
10825,4095,4095,4095
10827,4095,4095,4095
10829,143,4095,4095
10831,4095,4095,4095
10833,110,4095,4095
10834,133,4095,4095
10836,4095,4095,4095
10838,4095,4095,4095
10840,127,4095,4095
10842,4095,4095,4095
10844,3545,4095,4095
10846,227,4095,4095
10848,4095,4095,4095
10849,128,4095,4095
10851,123,4095,4095
10853,4095,4095,4095
10855,4095,4095,4095
10857,117,4095,4095
10859,4095,4095,4095
10861,131,4095,4095
10863,259,4095,4095
10864,4095,4095,4095
10866,143,4095,4095
10868,116,4095,4095
10870,4095,4095,4095
10872,221,4095,4095
10874,4095,4095,4095
10876,4095,4095,4095
10877,4095,4095,4095
10879,145,4095,4095
10881,4095,4095,4095
10883,106,4095,4095
10885,115,4095,4095
10887,4095,4095,4095
10889,203,4095,4095
10890,129,4095,4095
10892,4095,4095,4095
10894,446,4095,4095
10896,155,4095,4095
10898,4095,4095,4095
10900,91,4095,4095
10901,112,4095,4095
10903,4095,4095,4095
10905,4095,4095,4095
10907,122,4095,4095
10909,4095,4095,4095
10911,118,4095,4095
10913,255,4095,4095
10915,4095,4095,4095
10916,123,4095,4095
10918,103,4095,4095
10920,4095,4095,4095
10922,219,4095,4095
10924,3002,4095,4095
10926,4095,4095,4095
10928,128,4095,4095
10929,173,4095,4095
10931,4095,4095,4095
10933,161,4095,135
10935,138,4095,4095
10937,4095,4095,4095
10939,247,4095,4095
10940,158,4095,118
10942,4095,4095,135
10944,240,4095,4095
10946,192,4095,4095
10948,4095,4095,172
10949,172,4095,135
10951,128,4095,117
10953,4095,4095,99
10955,4095,4095,4095
10957,158,4095,163
10958,4095,4095,112
10960,4095,4095,150
10962,170,4095,201
10964,4095,4095,161
10966,178,4095,175
10967,124,4095,116
10969,4095,4095,107
10971,4095,4095,336
10973,190,4095,212
10974,4095,4095,121
10976,4095,4095,147
10978,171,4095,167
10980,4095,4095,193
10982,4095,4095,174
10983,157,4095,145
10985,4095,4095,102
10987,4095,4095,108
10989,269,4095,201
10991,4095,4095,119
10992,4095,4095,138
10994,1829,4095,176
10996,235,4095,115
10998,4095,4095,183
11000,160,4095,174
11001,97,4095,112
11003,4095,4095,106
11005,4095,4095,235
11007,160,4095,165
11008,4095,4095,114
11010,4095,4095,174
11012,161,4095,144
11014,4095,4095,188
11016,186,4095,173
11017,162,4095,144
11019,4095,4095,109
11021,4095,4095,186
11023,203,4095,227
11024,4095,4095,128
11026,4095,4095,145
11028,160,4095,149
11030,4095,4095,176
11032,4095,4095,201
11033,170,4095,159
11035,4095,4095,91
11037,4095,4095,96
11039,237,4095,273
11040,145,4095,111
11042,4095,4095,140
11044,2315,4095,144
11046,231,4095,279
11047,4095,4095,149
11049,192,4095,161
11051,130,4095,121
11053,4095,4095,109
11055,4095,4095,256
11056,178,4095,162
11058,4095,4095,112
11060,4095,4095,111
11062,149,4095,163
11064,4095,4095,179
11065,4095,4095,176
11067,149,4095,155
11069,4095,4095,123
11071,4095,4095,286
11073,201,4095,209
11074,4095,4095,95
11076,4095,4095,136
11078,158,4095,155
11080,4095,4095,114
11081,4095,4095,189
11083,150,4095,171
11085,4095,4095,116
11087,4095,4095,110
11089,216,4095,265
11090,151,4095,135
11092,4095,4095,113
11094,4095,4095,151
11096,207,4095,224
11097,4095,4095,160
11099,169,4095,160
11101,172,4095,130
11103,4095,4095,93
11105,4095,4095,199
11106,240,4095,166
11108,4095,4095,112
11110,4095,4095,128
11112,133,4095,139
11113,4095,4095,195
11115,4095,4095,149
11117,155,4095,153
11119,4095,4095,113
11121,4095,4095,173
11122,208,4095,221
11124,1552,4095,130
11126,4095,4095,112
11128,136,4095,139
11130,4095,4095,130
11131,4095,4095,99
11133,152,4095,158
11135,4095,4095,107
11137,4095,4095,96
11138,4095,4095,227
11140,134,4095,55
11142,4095,4095,112
11144,4095,4095,147
11146,209,4095,252
11147,4095,4095,176
11149,161,4095,144
11151,141,4095,229
11153,4095,4095,132
11154,4095,4095,289
11156,215,4095,170
11158,4095,4095,112
11160,4095,4095,127
11162,132,4095,163
11163,3409,4095,213
11165,4095,4095,172
11167,146,4095,161
11169,4095,4095,83
11170,4095,4095,99
11172,224,4095,240
11174,1900,4095,80
11176,4095,4095,117
11178,137,4095,144
11179,145,4095,272
11181,4095,4095,112
11183,172,4095,160
11185,4095,4095,110
11186,4095,4095,81
11188,4095,4095,196
11190,175,4095,107
11192,4095,4095,122
11194,4095,4095,135
11195,143,4095,172
11197,4095,4095,176
11199,209,4095,174
11201,165,4095,127
11202,4095,4095,103
11204,4095,4095,256
11206,226,4095,223
11208,4095,4095,107
11210,4095,4095,112
11211,144,4095,141
11213,215,4095,144
11215,4095,4095,144
11217,170,4095,163
11218,4095,4095,79
11220,4095,4095,161
11222,297,4095,259
11224,2462,4095,144
11226,4095,4095,131
11227,4095,4095,138
11229,132,4095,227
11231,4095,4095,148
11233,147,4095,172
11234,138,4095,75
11236,4095,4095,112
11238,4095,4095,215
11240,171,4095,144
11242,4095,4095,177
11243,4095,4095,124
11245,131,4095,135
11247,4095,4095,335
11249,198,4095,231
11250,125,4095,129
11252,4095,4095,104
11254,4095,4095,106
11256,237,4095,223
11258,4095,4095,115
11259,4095,4095,119
11261,163,4095,192
11263,281,4095,326
11265,4095,4095,149
11267,124,4095,112
11268,90,4095,128
11270,4095,4095,135
11272,323,4095,294
11273,190,4095,111
11275,4095,4095,112
11277,4095,4095,176
11279,156,4095,208
11281,4095,4095,234
11282,4095,4095,142
11284,106,4095,147
11286,4095,4095,135
11288,4095,4095,420
11290,112,4095,189
11291,4095,4095,94
11293,4095,4095,128
11295,134,4095,242
11297,4095,4095,213
11298,4095,4095,111
11300,208,4095,107
11302,4095,4095,187
11304,4095,4095,208
11306,4095,4095,102
11307,4095,4095,111
11309,4095,4095,189
11311,221,4095,4095
11313,4095,4095,219
11315,4095,4095,128
11317,4095,4095,89
11318,4095,4095,177
11320,4095,542,370
11322,4095,4095,143
11324,4095,4095,123
11326,4095,4095,87
11327,4095,4095,4095
11329,4095,4095,274
11331,4095,4095,112
11333,4095,4095,113
11335,4095,4095,120
11336,4095,191,689
11338,4095,4095,156
11340,4095,4095,112
11342,4095,4095,130
11344,4095,4095,131
11345,4095,4095,243
11347,4095,4095,125
11349,4095,4095,140
11351,4095,4095,119
11353,4095,467,493
11355,4095,4095,114
11356,4095,4095,131
11358,4095,4095,110
11360,4095,4095,142
11362,4095,4095,317
11364,4095,4095,131
11365,4095,4095,141
11367,4095,4095,142
11369,4095,359,354
11371,4095,4095,173
11373,4095,4095,130
11374,4095,4095,123
11376,4095,4095,104
11378,4095,4095,587
11380,276,273,233
11382,4095,4095,112
11383,4095,2265,176
11385,187,183,194
11387,4095,4095,425
11389,156,4095,151
11390,159,4095,151
11392,141,4095,195
11394,4095,4095,368
11396,278,4095,298
11397,132,4095,137
11399,2215,4095,163
11401,186,188,208
11403,242,191,323
11404,123,4095,155
11406,193,4095,195
11408,129,4095,144
11410,131,4095,155
11411,4095,4095,529
11413,279,4095,186
11415,125,4095,147
11417,152,4095,167
11418,179,176,195
11420,378,326,358
11422,2340,4095,287
11423,183,4095,158
11425,114,4095,125
11427,144,4095,129
11429,370,4095,391
11430,201,4095,144
11432,137,4095,106
11434,163,4095,173
11436,192,192,144
11437,295,4095,321
11439,391,4095,282
11441,128,4095,140
11442,101,4095,131
11444,144,4095,459
11446,4095,4095,208
11448,144,4095,129
11449,128,4095,144
11451,4095,144,144
11453,4095,201,534
11455,4095,4095,143
11457,4095,4095,112
11458,4095,4095,138
11460,4095,4095,145
11462,4095,4095,272
11464,4095,4095,117
11466,4095,4095,112
11467,4095,4095,222
11469,4095,132,191
11471,4095,4095,122
11473,4095,4095,157
11475,4095,4095,133
11476,4095,4095,139
11478,4095,4095,391
11480,4095,4095,202
11482,129,4095,159
11484,159,4095,160
11485,253,186,185
11487,279,4095,254
11489,196,4095,136
11491,123,4095,156
11492,129,4095,134
11494,123,4095,151
11496,304,4095,299
11497,155,4095,130
11499,154,4095,180
11501,155,4095,163
11503,192,189,407
11504,111,4095,247
11506,110,4095,257
11508,148,4095,122
11510,158,4095,207
11511,4095,4095,499
11513,4095,4095,135
11515,4095,4095,126
11517,4095,4095,100
11519,4095,128,155
11520,4095,412,314
11522,4095,4095,147
11524,4095,4095,119
11526,4095,4095,137
11528,4095,4095,114
11529,4095,4095,246
11531,4095,4095,122
11533,4095,4095,141
11535,4095,4095,124
11537,4095,163,206
11538,4095,4095,346
11540,4095,4095,112
11542,4095,4095,111
11544,4095,4095,154
11546,377,4095,272
11547,4095,4095,225
11549,4095,4095,125
11551,4095,4095,123
11553,4095,138,161
11555,234,4095,278
11556,4095,4095,213
11558,4095,4095,101
11560,4095,4095,195
11562,683,4095,416
11564,4095,4095,159
11565,4095,4095,125
11567,4095,4095,119
11569,4095,125,236
11571,4095,4095,189
11573,4095,4095,208
11574,4095,4095,108
11576,4095,4095,155
11578,4095,4095,289
11580,4095,4095,209
11582,4095,4095,115
11584,142,4095,189
11585,147,176,192
11587,464,443,285
11589,175,4095,219
11590,162,4095,155
11592,195,4095,170
11594,4095,4095,111
11596,383,4095,547
11597,400,4095,292
11599,155,4095,220
11601,146,4095,163
11603,132,4095,175
11604,203,304,433
11606,231,4095,225
11608,134,4095,143
11609,182,4095,150
11611,151,4095,145
11613,422,4095,342
11615,189,218,187
11616,150,2517,176
11618,182,182,201
11620,189,177,197
11621,256,4095,176
11623,177,4095,176
11625,144,4095,117
11626,155,4095,147
11628,149,4095,127
11630,318,4095,277
11632,4095,129,80
11633,4095,4095,266
11635,167,176,275
11637,4095,147,311
11639,4095,4095,180
11640,541,4095,168
11642,4095,4095,166
11644,4095,4095,114
11646,4095,4095,291
11648,4095,176,258
11649,275,4095,240
11651,775,154,164
11653,4095,141,256
11654,4095,4095,180
11656,4095,4095,139
11658,4095,4095,110
11660,4095,4095,177
11662,4095,4095,395
11664,256,272,257
11665,159,1273,169
11667,4095,144,167
11669,195,190,198
11670,338,374,185
11672,4095,4095,187
11674,148,4095,160
11676,145,4095,102
11677,235,4095,103
11679,448,4095,368
11681,176,170,177
11682,155,3665,176
11684,168,196,210
11686,144,192,194
11687,223,4095,292
11689,291,4095,199
11691,144,4095,128
11693,162,4095,149
11694,4095,4095,583
11696,309,4095,181
11698,227,4095,141
11700,149,4095,166
11701,178,122,204
11703,321,446,363
11705,4095,4095,231
11707,128,4095,154
11708,141,4095,143
11710,2047,4095,102
11712,496,4095,270
11714,172,4095,153
11715,139,4095,137
11717,163,4095,173
11719,122,185,184
11720,326,4095,330
11722,304,4095,197
11724,155,4095,152
11726,192,4095,208
11727,4095,4095,521
11729,394,4095,258
11731,143,4095,135
11733,153,4095,155
11734,156,180,180
11736,195,177,238
11738,4095,4095,179
11740,196,4095,183
11741,136,4095,180
11743,192,4095,176
11745,377,4095,464
11746,240,4095,283
11748,209,4095,145
11750,101,4095,226
11752,201,196,192
11753,189,182,214
11755,4095,4095,249
11757,251,4095,153
11759,130,4095,169
11760,221,4095,174
11762,379,4095,274
11764,256,4095,171
11765,227,4095,208
11767,129,4095,167
11769,128,199,193
11771,335,312,343
11772,159,4095,246
11774,179,4095,107
11776,147,4095,148
11777,173,4095,203
11779,303,4095,240
11781,147,4095,195
11783,208,4095,215
11784,209,4095,133
11786,149,187,196
11788,232,246,4095
11790,162,4095,325
11791,138,4095,170
11793,176,4095,201
11795,90,4095,4095
11796,189,4095,4095
11798,64,4095,4095
11800,320,4095,4095
11802,192,4095,4095
11804,144,4095,4095
11805,118,4095,4095
11807,131,4095,4095
11809,175,4095,4095
11811,89,4095,4095
11813,74,4095,4095
11814,90,4095,4095
11816,122,4095,4095
11818,218,4095,4095
11820,148,4095,4095
11822,122,4095,4095
11823,123,4095,4095
11825,62,4095,4095
11827,67,4095,4095
11829,112,4095,4095
11831,89,4095,4095
11832,141,4095,4095
11834,267,4095,4095
11836,179,4095,4095
11838,151,4095,4095
11840,115,4095,4095
11841,119,4095,4095
11843,107,4095,4095
11845,99,4095,4095
11847,81,4095,4095
11849,222,4095,4095
11850,249,4095,180
11852,155,4095,4095
11854,119,4095,4095
11856,144,4095,4095
11858,176,4095,177
11859,139,4095,155
11861,116,4095,4095
11863,85,4095,4095
11865,163,4095,4095
11866,374,4095,212
11868,160,4095,215
11870,163,4095,1988
11872,101,4095,4095
11874,208,4095,218
11875,143,4095,146
11877,144,4095,4095
11879,91,4095,4095
11881,92,4095,4095
11882,140,4095,213
11884,175,4095,176
11886,135,4095,190
11888,145,4095,4095
11889,118,4095,4095
11891,124,4095,144
11893,167,4095,146
11895,103,4095,4095
11896,106,4095,4095
11898,117,4095,4095
11900,176,4095,156
11902,139,4095,144
11904,147,4095,141
11905,144,4095,4095
11907,116,4095,154
11909,135,4095,128
11911,127,4095,133
11912,128,4095,4095
11914,143,4095,1167
11916,166,4095,174
11918,137,4095,138
11919,143,4095,159
11921,166,4095,130
11923,174,4095,304
11925,140,4095,131
11926,130,4095,128
11928,113,4095,126
11930,130,4095,4095
11932,177,4095,192
11933,145,4095,134
11935,125,4095,81
11937,117,4095,145
11939,106,4095,4095
11940,260,4095,158
11942,115,4095,155
11944,74,4095,137
11945,80,4095,142
11947,80,4095,4095
11949,197,4095,265
11951,125,4095,140
11952,129,4095,144
11954,87,4095,128
11956,130,4095,4095
11958,138,4095,151
11959,129,4095,220
11961,111,4095,128
11963,123,4095,4095
11965,194,4095,334
11966,160,4095,179
11968,144,4095,241
11970,128,4095,191
11972,112,4095,4095
11973,162,4095,298
11975,130,4095,272
11977,133,4095,128
11979,144,4095,4095
11980,4095,4095,4095
11982,141,4095,193
11984,175,4095,149
11986,159,4095,119
11988,4095,4095,4095
11989,182,4095,4095
11991,3211,4095,107
11993,2882,4095,176
11995,112,4095,4095
11997,4095,4095,4095
11999,155,4095,4095
12000,167,4095,155
12002,4095,4095,4095
12004,4095,4095,4095
12006,176,4095,4095
12008,4095,4095,137
12010,4095,4095,1234
12012,113,4095,4095
12013,4095,4095,4095
12015,4095,4095,4095
12017,174,4095,169
12019,4095,4095,4095
12021,4095,4095,4095
12023,175,4095,4095
12025,4095,4095,2276
12026,4095,4095,4095
12028,103,4095,4095
12030,4095,4095,4095
12032,4095,4095,4095
12034,177,4095,167
12036,4095,4095,4095
12038,4095,4095,4095
12040,133,4095,4095
12041,4095,4095,3120
12043,4095,4095,4095
12045,101,4095,4095
12047,4095,4095,4095
12049,144,4095,4095
12051,164,4095,166
12053,4095,4095,4095
12054,4095,4095,4095
12056,162,4095,4095
12058,4095,4095,3363
12060,4095,4095,4095
12062,100,4095,4095
12064,4095,4095,4095
12066,142,4095,4095
12068,161,4095,198
12069,4095,4095,4095
12071,4095,4095,4095
12073,144,4095,4095
12075,4095,4095,890
12077,4095,4095,4095
12079,137,4095,4095
12080,4095,4095,4095
12082,4095,4095,4095
12084,136,4095,531
12086,4095,4095,4095
12088,4095,4095,4095
12090,165,4095,4095
12092,4095,4095,4095
12094,1953,4095,4095
12095,98,4095,4095
12097,4095,4095,4095
12099,157,4095,4095
12101,124,4095,4095
12103,4095,4095,4095
12105,4095,4095,4095
12107,129,4095,4095
12108,4095,4095,4095
12110,4095,4095,4095
12112,117,4095,4095
12114,4095,4095,4095
12116,123,4095,4095
12118,144,4095,4095
12120,4095,4095,4095
12122,2096,4095,4095
12123,129,4095,4095
12125,4095,4095,4095
12127,4095,4095,4095
12129,125,4095,4095
12131,4095,4095,4095
12133,129,4095,4095
12135,3792,4095,4095
12137,4095,4095,4095
12138,4095,4095,4095
12140,134,4095,4095
12142,4095,4095,4095
12144,3378,4095,4095
12146,162,4095,4095
12148,4095,4095,4095
12150,144,4095,4095
12152,4095,4095,4095
12153,4095,4095,4095
12155,4095,4095,4095
12157,121,4095,4095
12159,4095,4095,4095
12161,109,4095,4095
12163,4095,4095,4095
12165,4095,4095,4095
12167,123,4095,4095
12168,462,4095,4095
12170,4095,4095,4095
12172,4095,4095,4095
12174,146,4095,4095
12176,4095,4095,4095
12178,110,4095,4095
12180,4095,4095,4095
12182,4095,4095,4095
12184,128,4095,4095
12185,4095,4095,4095
12187,4095,4095,4095
12189,179,4095,4095
12191,4095,4095,4095
12193,4095,4095,4095
12195,112,4095,4095
12197,4095,4095,4095
12199,130,4095,4095
12200,145,4095,4095
12202,4095,4095,4095
12204,4095,4095,4095
12206,180,4095,4095
12208,4095,4095,4095
12210,4095,4095,4095
12212,112,4095,4095
12213,4095,4095,4095
12215,4095,4095,4095
12217,129,4095,4095
12219,4095,4095,4095
12221,4095,4095,4095
12223,157,4095,4095
12225,4095,4095,4095
12227,4095,4095,4095
12229,144,4095,4095
12230,4095,4095,4095
12232,4095,4095,4095
12234,124,4095,4095
12236,4095,4095,4095
12238,4095,4095,4095
12240,118,4095,4095
12242,4095,4095,4095
12244,2909,4095,4095
12245,98,4095,4095
12247,4095,4095,4095
12249,145,4095,4095
12251,133,4095,4095
12253,4095,4095,4095
12255,4095,4095,4095
12257,131,4095,4095
12258,4095,4095,4095
12260,4095,4095,4095
12262,109,4095,4095
12264,4095,4095,4095
12266,122,4095,4095
12268,87,4095,4095
12270,4095,4095,4095
12271,4095,4095,4095
12273,161,4095,4095
12275,4095,4095,4095
12277,4095,4095,4095
12279,128,4095,4095
12281,4095,4095,4095
12283,128,4095,4095
12285,2880,4095,4095
12286,4095,4095,4095
12288,4095,4095,4095
12290,115,4095,4095
12292,4095,4095,4095
12294,3366,4095,4095
12296,161,4095,4095
12298,4095,4095,4095
12300,117,4095,4095
12301,131,4095,4095
12303,4095,4095,4095
12305,4095,4095,4095
12307,131,4095,4095
12309,4095,4095,4095
12311,114,4095,4095
12313,4095,4095,4095
12315,4095,4095,4095
12316,123,4095,4095
12318,128,4095,4095
12320,4095,4095,4095
12322,1720,4095,4095
12324,128,4095,4095
12326,4095,4095,4095
12328,114,4095,4095
12330,4095,4095,4095
12331,4095,4095,4095
12333,128,4095,4095
12335,2677,4095,4095
12337,4095,4095,4095
12339,176,4095,4095
12341,4095,4095,4095
12343,4095,4095,4095
12345,101,4095,4095
12346,97,4095,4095
12348,4095,4095,4095
12350,125,4095,4095
12352,4095,4095,4095
12354,4095,4095,4095
12356,174,4095,4095
12358,4095,4095,4095
12359,4095,4095,4095
12361,98,4095,4095
12363,4095,4095,4095
12365,4095,4095,4095
12367,135,4095,4095
12369,4095,4095,4095
12371,4095,4095,4095
12373,156,4095,4095
12374,4095,4095,4095
12376,4095,4095,4095
12378,115,4095,4095
12380,4095,4095,4095
12382,4095,4095,4095
12384,134,4095,4095
12386,4095,4095,4095
12388,4095,4095,4095
12389,171,4095,4095
12391,4095,4095,4095
12393,4095,4095,4095
12395,106,4095,4095
12397,4095,4095,4095
12399,146,4095,4095
12401,147,4095,115
12402,4095,4095,4095
12404,4095,4095,4095
12406,170,4095,4095
12408,4095,4095,928
12410,4095,4095,2854
12412,107,4095,4095
12414,4095,4095,4095
12416,144,4095,4095
12417,171,4095,178
12419,4095,4095,3840
12421,4095,4095,4095
12423,132,4095,4095
12425,4095,4095,114
12427,4095,4095,128
12428,112,4095,4095
12430,4095,4095,4095
12432,4095,4095,186
12434,160,4095,176
12436,4095,4095,119
12437,4095,4095,4095
12439,176,4095,4095
12441,4095,4095,107
12443,4095,4095,102
12445,143,4095,173
12447,4095,4095,4095
12449,194,4095,199
12450,176,4095,149
12452,4095,4095,125
12454,4095,4095,156
12456,172,4095,4095
12457,125,4095,116
12459,4095,4095,112
12461,149,4095,225
12463,162,4095,4095
12465,4095,4095,4095
12466,226,4095,202
12468,151,4095,117
12470,4095,4095,107
12472,205,4095,4095
12474,144,4095,156
12475,4095,4095,128
12477,4095,4095,126
12479,123,4095,4095
12481,4095,4095,4095
12483,112,4095,4095
12485,175,4095,4095
12486,4095,4095,4095
12488,4095,4095,4095
12490,113,4095,4095
12492,4095,4095,4095
12494,128,4095,4095
12496,175,4095,4095
12498,4095,4095,4095
12499,107,4095,4095
12501,112,4095,4095
12503,4095,4095,4095
12505,4095,4095,4095
12507,112,4095,4095
12509,4095,4095,4095
12511,111,4095,4095
12512,109,4095,4095
12514,4095,4095,4095
12516,111,4095,4095
12518,161,4095,4095
12520,4095,4095,4095
12522,246,4095,4095
12524,125,4095,4095
12525,4095,4095,4095
12527,4095,4095,4095
12529,112,4095,4095
12531,4095,4095,4095
12533,142,4095,4095
12535,176,4095,4095
12537,4095,4095,4095
12539,173,4095,4095
12540,131,4095,4095
12542,4095,4095,4095
12544,125,4095,4095
12546,164,4095,4095
12548,4095,4095,4095
12550,171,4095,4095
12551,103,4095,4095
12553,4095,4095,4095
12555,4095,4095,4095
12557,122,4095,4095
12559,4095,4095,4095
12561,115,4095,4095
12563,190,4095,4095
12564,4095,4095,195
12566,165,4095,4095
12568,112,4095,4095
12570,4095,4095,4095
12572,240,4095,4095
12574,170,4095,190
12575,4095,4095,108
12577,2310,4095,4095
12579,108,4095,4095
12581,4095,4095,197
12583,147,4095,159
12585,194,4095,128
12586,4095,4095,176
12588,4095,4095,4095
12590,160,4095,158
12592,4095,4095,106
12594,147,4095,151
12595,113,4095,4095
12597,4095,4095,196
12599,192,4095,160
12601,130,4095,133
12602,4095,4095,126
12604,4095,4095,4095
12606,159,4095,151
12608,4095,4095,82
12610,4095,4095,134
12611,91,4095,4095
12613,214,4095,4095
12615,4095,4095,222
12617,128,4095,150
12619,4095,4095,112
12620,4095,4095,4095
12622,250,4095,219
12624,4095,4095,107
12626,4095,4095,131
12628,112,4095,4095
12630,4095,4095,4095
12631,4095,4095,208
12633,128,4095,144
12635,159,4095,130
12637,4095,4095,152
12639,216,4095,4095
12640,144,4095,111
12642,4095,4095,121
12644,157,4095,171
12646,237,4095,4095
12647,4095,4095,199
12649,185,4095,86
12651,149,4095,146
12653,4095,4095,122
12655,266,4095,4095
12656,183,4095,153
12658,4095,4095,130
12660,2997,4095,158
12662,113,4095,4095
12664,4095,4095,165
12665,381,4095,139
12667,137,4095,131
12669,4095,4095,114
12671,4095,4095,4095
12673,175,4095,182
12674,4095,4095,122
12676,4095,4095,158
12678,139,4095,134
12680,4095,4095,360
12682,134,4095,128
12683,129,4095,148
12685,144,4095,162
12687,183,4095,208
12688,145,4095,4095
12690,157,4095,141
12692,127,4095,128
12694,138,4095,143
12695,129,4095,4095
12697,251,4095,222
12699,94,4095,171
12701,157,4095,163
12702,146,4095,146
12704,219,4095,4095
12706,192,4095,165
12708,124,4095,128
12709,111,4095,149
12711,153,4095,225
12713,205,4095,147
12715,147,4095,157
12716,125,4095,67
12718,151,4095,144
12720,135,4095,204
12722,162,4095,4095
12723,176,4095,144
12725,115,4095,117
12727,140,4095,142
12729,125,4095,167
12730,198,4095,213
12732,135,4095,143
12734,146,4095,159
12735,133,4095,149
12737,147,4095,142
12739,284,4095,189
12741,138,4095,135
12742,131,4095,80
12744,142,4095,131
12746,142,4095,4095
12748,196,4095,220
12749,125,4095,147
12751,165,4095,151
12753,143,4095,160
12755,171,4095,4095
12756,191,4095,170
12758,128,4095,131
12760,125,4095,149
12762,124,4095,137
12763,352,4095,240
12765,153,4095,133
12767,136,4095,163
12769,192,194,198
12770,176,199,277
12772,177,4095,304
12774,137,4095,150
12775,115,4095,142
12777,139,4095,126
12779,128,4095,314
12781,215,4095,213
12782,97,4095,176
12784,137,197,192
12786,171,179,174
12787,257,276,197
12789,381,270,192
12791,128,4095,129
12792,128,4095,135
12794,117,4095,144
12796,125,4095,1629
12798,177,4095,158
12799,121,4095,155
12801,182,207,192
12803,179,190,182
12804,293,151,4095
12806,204,268,171
12808,144,4095,143
12809,138,4095,173
12811,130,4095,89
12813,286,4095,304
12815,154,4095,165
12816,132,169,208
12818,193,201,199
12820,176,165,182
12821,147,207,4095
12823,192,3331,167
12825,119,4095,125
12826,96,4095,122
12828,122,4095,156
12830,331,4095,242
12832,142,4095,128
12833,166,187,194
12835,203,184,208
12837,199,222,245
12838,205,192,4095
12840,171,4095,150
12842,116,4095,128
12843,132,4095,139
12845,120,4095,144
12847,238,4095,219
12849,191,2622,193
12850,176,186,192
12852,181,181,198
12854,338,302,257
12855,192,207,244
12857,88,4095,152
12859,131,4095,145
12860,80,4095,138
12862,134,4095,1269
12864,4095,4095,195
12866,744,242,187
12867,4095,145,172
12869,4095,128,154
12871,4095,268,4095
12873,2486,4095,144
12874,4095,4095,119
12876,4095,4095,156
12878,145,4095,141
12880,4095,4095,263
12882,162,4095,156
12883,182,191,164
12885,4095,144,172
12887,4095,192,398
12889,225,228,208
12890,4095,4095,113
12892,4095,4095,118
12894,150,4095,147
12896,176,4095,4095
12897,4095,4095,203
12899,142,4095,142
12901,204,199,159
12903,4095,144,149
12904,4095,2257,4095
12906,137,4095,143
12908,4095,4095,111
12910,617,4095,173
12912,151,4095,208
12913,4095,4095,278
12915,2734,4095,154
12917,144,4095,166
12919,4095,4095,127
12920,4095,4095,282
12922,191,4095,106
12924,4095,4095,205
12926,4095,4095,144
12928,153,4095,159
12929,249,4095,251
12931,4095,4095,96
12933,131,4095,155
12935,4095,4095,127
12936,4095,4095,171
12938,240,4095,4095
12940,4095,4095,113
12942,4095,4095,112
12944,158,4095,142
12945,149,4095,4095
12947,4095,4095,208
12949,144,4095,148
12951,142,4095,126
12953,4095,4095,161
12954,4095,4095,4095
12956,181,4095,146
12958,4095,4095,118
12960,4095,4095,156
12962,145,4095,195
12963,4095,4095,262
12965,4095,4095,140
12967,143,4095,125
12969,4095,4095,103
12971,4095,4095,4095
12973,138,4095,184
12974,4095,4095,115
12976,4095,4095,142
12978,153,4095,162
12980,4095,4095,336
12982,160,4095,128
12983,111,4095,138
12985,4095,4095,188
12987,4095,4095,377
12989,203,4095,198
12990,4095,4095,128
12992,4095,4095,112
12994,160,4095,144
12996,4095,4095,4095
12998,4095,4095,160
12999,144,4095,86
13001,855,4095,114
13003,4095,4095,162
13005,256,4095,4095
13007,4095,4095,78
13008,4095,4095,124
13010,117,4095,177
13012,135,4095,1616
13014,4095,4095,168
13015,176,4095,157
13017,113,4095,149
13019,4095,4095,119
13021,236,4095,4095
13023,211,4095,147
13024,4095,4095,128
13026,4095,4095,147
13028,144,4095,170
13030,4095,4095,237
13032,158,4095,156
13033,133,4095,155
13035,4095,4095,129
13037,4095,4095,430
13039,172,4095,247
13040,4095,4095,123
13042,4095,4095,109
13044,138,4095,156
13046,4095,4095,4095
13048,4095,4095,191
13049,143,4095,137
13051,272,4095,130
13053,4095,4095,179
13055,242,4095,4095
13057,4095,4095,122
13058,4095,4095,118
13060,171,4095,166
13062,192,4095,4095
13064,4095,4095,217
13066,147,4095,112
13067,151,4095,135
13069,4095,4095,131
13071,4095,4095,4095
13073,176,4095,100
13075,4095,4095,98
13076,4095,4095,156
13078,173,4095,158
13080,4095,4095,245
13082,162,4095,167
13083,177,4095,145
13085,4095,4095,128
13087,4095,4095,320
13089,162,4095,182
13091,4095,4095,98
13092,4095,4095,111
13094,144,4095,171
13096,4095,4095,4095
13098,240,4095,173
13099,133,4095,136
13101,187,4095,176
13103,128,4095,170
13105,166,4095,4095
13107,121,4095,141
13108,129,4095,144
13110,129,4095,102
13112,165,4095,2850
13114,250,4095,242
13115,175,4095,132
13117,138,4095,119
13119,139,4095,146
13120,183,4095,144
13122,163,4095,206
13124,119,4095,144
13126,170,4095,252
13127,147,4095,102
13129,168,4095,4095
13131,4095,4095,224
13133,210,4095,189
13135,90,4095,239
13136,128,4095,117
13138,123,4095,4095
13140,165,4095,139
13141,118,4095,141
13143,206,4095,109
13145,129,4095,4095
13147,240,4095,243
13149,129,4095,67
13150,147,4095,160
13152,153,4095,144
13154,208,4095,159
13155,170,4095,299
13157,161,4095,144
13159,131,4095,128
13161,139,4095,129
13162,132,4095,4095
13164,318,4095,227
13166,126,4095,135
13168,144,4095,186
13169,151,4095,156
13171,124,4095,4095
13173,187,4095,165
13175,123,4095,132
13176,109,4095,215
13178,127,4095,1894
13180,239,4095,207
13182,144,4095,145
13183,144,4095,160
13185,201,4095,144
13187,199,4095,210
13189,101,4095,3390
13190,144,4095,137
13192,99,4095,112
13194,80,4095,150
13195,139,4095,4095
13197,170,4095,212
13199,131,4095,151
13201,164,4095,181
13203,134,4095,97
13204,304,4095,4095
13206,233,4095,166
13208,194,4095,118
13209,125,4095,134
13211,143,4095,176
13213,240,4095,4095
13215,190,4095,161
13216,133,4095,170
13218,192,733,267
13220,151,1815,210
13222,167,4095,4095
13223,155,4095,143
13225,137,4095,121
13227,126,4095,157
13229,131,4095,4095
13230,436,4095,223
13232,142,4095,150
13234,136,176,208
13236,171,188,130
13237,226,254,176
13239,148,4095,261
13241,201,4095,127
13242,126,4095,124
13244,149,4095,74
13246,105,4095,4095
13248,173,4095,134
13249,175,186,138
13251,143,199,208
13253,192,169,181
13254,237,162,4095
13256,304,1593,154
13258,176,4095,183
13259,143,4095,125
13261,169,4095,144
13263,262,4095,573
13265,212,202,159
13266,177,177,199
13268,197,198,221
13270,181,180,208
13271,160,165,4095
13273,193,4095,143
13275,113,4095,128
13276,84,4095,128
13278,125,4095,2960
13280,235,4095,306
13282,180,181,181
13283,152,175,202
13285,193,176,208
13287,267,239,244
13288,163,188,4095
13290,193,4095,122
13292,80,4095,116
13293,112,4095,126
13295,127,4095,4095
13297,365,326,310
13299,212,163,267
13300,143,174,227
13302,237,167,201
13304,264,259,219
13305,214,182,4095
13307,137,4095,151
13309,150,169,166
13310,141,4095,145
13312,130,4095,4095
13314,348,291,266
13316,160,149,175
13317,157,175,209
13319,188,172,200
13320,289,267,222
13322,174,4095,326
13324,128,4095,128
13326,115,4095,130
13327,128,4095,135
13329,303,4095,4095
13331,243,226,237
13333,181,169,174
13334,173,168,176
13336,176,185,183
13337,275,239,3653
13339,214,4095,185
13341,126,4095,135
13343,122,4095,126
13344,118,4095,131
13346,272,4095,318
13348,239,202,170
13350,161,166,162
13351,212,149,197
13353,157,173,192
13355,119,4095,4095
13356,222,4095,178
13358,129,4095,130
13360,128,4095,211
13362,142,4095,336
13363,397,343,379
13365,170,176,160
13367,175,158,183
13368,173,179,183
13370,192,193,208
13372,279,4095,4095
13373,193,4095,142
13375,143,4095,150
13377,115,4095,131
13379,400,4095,2897
13380,347,314,295
13382,164,155,171
13384,222,180,176
13385,176,171,198
13387,209,266,283
13389,144,4095,427
13390,176,4095,144
13392,115,4095,139
13394,187,4095,135
13396,241,4095,4095
13397,304,290,225
13399,238,171,171
13401,141,195,198
13402,177,178,213
13404,283,224,272
13406,208,4095,245
13407,143,4095,195
13409,144,4095,111
13411,119,4095,128
13413,269,4095,4095
13414,171,304,4095
13416,125,123,4095
13418,208,141,4095
13420,160,163,4095
13421,164,257,4095
13423,155,4095,4095
13425,66,4095,4095
13427,96,4095,4095
13428,96,4095,4095
13430,192,238,4095
13432,165,144,4095
13434,141,157,4095
13435,130,126,4095
13437,4095,185,4095
13439,177,4095,4095
13441,4095,4095,4095
13443,79,4095,4095
13444,115,4095,4095
13446,4095,4095,4095
13448,4095,195,4095
13450,177,171,4095
13452,4095,112,4095
13453,4095,123,4095
13455,181,4095,4095
13457,4095,4095,4095
13459,4095,4095,4095
13461,111,4095,4095
13463,4095,4095,4095
13465,1732,173,4095
13466,144,175,4095
13468,4095,109,4095
13470,4095,108,4095
13472,211,4095,4095
13474,4095,4095,4095
13476,4095,4095,4095
13478,123,4095,4095
13479,4095,4095,4095
13481,4095,197,4095
13483,166,247,4095
13485,4095,112,4095
13487,4095,131,4095
13488,640,4095,4095
13490,4095,4095,4095
13492,4095,4095,4095
13494,4095,4095,4095
13496,4095,4095,4095
13498,4095,158,4095
13500,3829,117,4095
13502,4095,108,4095
13503,4095,112,4095
13505,235,4095,4095
13507,4095,4095,114
13509,4095,4095,4095
13511,143,4095,4095
13513,4095,4095,353
13514,4095,169,153
13516,181,159,3568
13518,4095,139,159
13520,4095,288,256
13521,4095,4095,4095
13523,4095,4095,119
13525,4095,4095,124
13527,4095,4095,128
13529,4095,4095,4095
13531,4095,177,210
13532,2693,175,158
13534,4095,144,159
13536,4095,159,176
13538,4095,320,4095
13539,258,4095,133
13541,4095,4095,116
13543,4095,4095,121
13545,144,4095,4095
13547,4095,313,320
13548,4095,149,135
13550,4095,150,154
13552,4095,137,144
13554,4095,439,4095
13555,266,4095,206
13557,4095,149,149
13559,4095,156,147
13561,249,4095,4095
13562,4095,4095,4095
13564,4095,203,185
13566,2526,141,128
13568,4095,133,134
13570,4095,106,4095
13571,4095,244,281
13573,4095,4095,139
13575,4095,143,128
13577,4095,4095,4095
13579,4095,4095,4095
13580,4095,313,2474
13582,4095,165,192
13584,4095,141,4095
13586,4095,108,4095
13588,4095,224,4095
13589,103,4095,4095
13591,4095,4095,4095
13593,4095,4095,4095
13595,117,4095,4095
13597,4095,197,4095
13599,169,158,4095
13601,4095,117,4095
13602,4095,94,4095
13604,4095,560,4095
13606,142,4095,4095
13608,4095,4095,4095
13610,4095,4095,4095
13612,379,4095,4095
13613,4095,235,4095
13615,4095,181,4095
13617,4095,128,4095
13619,4095,107,4095
13621,4095,443,4095
13622,182,4095,4095
13624,4095,4095,4095
13626,4095,4095,4095
13628,112,4095,4095
13630,4095,245,4095
13632,406,169,4095
13633,1151,112,4095
13635,4095,119,4095
13637,4095,160,4095
13639,191,4095,359
13641,4095,4095,203
13643,4095,4095,4095
13644,125,4095,4095
13646,4095,4095,295
13648,4095,150,112
13650,4095,119,4095
13652,4095,139,144
13653,4095,187,4095
13655,224,4095,240
13657,4095,4095,125
13659,4095,4095,106
13661,144,4095,4095
13662,4095,4095,320
13664,4095,188,156
13666,176,166,165
13668,4095,133,162
13669,4095,142,115
13671,4095,308,4095
13673,4095,4095,63
13675,4095,4095,128
13676,4095,4095,122
13678,143,4095,4095
13680,4095,310,239
13682,3632,146,179
13684,4095,153,140
13685,4095,84,171
13687,4095,194,528
13689,294,4095,205
13690,4095,4095,109
13692,4095,4095,119
13694,4095,4095,147
13696,4095,4095,300
13698,4095,169,169
13699,183,176,172
13701,4095,135,144
13703,4095,156,271
13705,232,4095,279
13706,839,4095,128
13708,4095,4095,122
13710,4095,4095,128
13712,304,4095,4095
13714,4095,245,233
13715,4095,151,176
13717,4095,137,143
13719,4095,134,164
13720,4095,139,4095
13722,260,4095,176
13724,4095,4095,125
13726,4095,4095,116
13728,144,4095,391
13729,4095,4095,296
13731,4095,159,141
13733,189,169,155
13735,4095,141,146
13736,4095,163,247
13738,4095,4095,278
13740,4095,4095,80
13742,4095,4095,133
13743,4095,4095,139
13745,133,4095,4095
13747,4095,254,227
13749,119,172,176
13751,4095,134,149
13752,4095,144,111
13754,4095,549,4095
13756,199,4095,146
13758,4095,4095,117
13759,4095,4095,121
13761,144,4095,169
13763,4095,4095,330
13765,4095,136,150
13766,190,160,153
13768,4095,145,159
13770,4095,251,289
13772,293,4095,272
13773,4095,4095,114
13775,4095,4095,122
13777,4095,4095,134
13779,4095,4095,407
13781,4095,177,171
13782,483,174,173
13784,4095,144,163
13786,4095,144,143
13787,4095,543,4095
13789,229,4095,128
13791,4095,4095,107
13793,4095,4095,112
13795,148,4095,334
13796,4095,4095,304
13798,4095,178,180
13800,1488,151,147
13802,4095,138,157
13803,4095,235,282
13805,233,4095,223
13807,4095,4095,124
13809,4095,4095,126
13811,150,4095,163
13812,320,4095,400
13814,4095,262,193
13816,164,161,167
13817,4095,146,172
13819,4095,139,197
13821,4095,355,4095
13823,4095,4095,139
13825,4095,4095,109
13826,4095,4095,127
13828,144,4095,4095
13830,4095,285,272
13832,176,176,159
13833,178,173,244
13835,4095,134,158
13837,4095,132,4095
13839,221,4095,222
13840,4095,4095,111
13842,4095,4095,125
13844,264,4095,157
13846,4095,4095,1317
13848,4095,211,230
13849,180,157,4095
13851,4095,112,4095
13853,4095,102,4095
13855,186,4095,4095
13857,4095,4095,4095
13858,4095,4095,4095
13860,4095,4095,4095
13862,466,4095,4095
13864,4095,208,4095
13866,147,154,4095
13868,4095,97,4095
13869,4095,110,4095
13871,4095,4095,4095
13873,4095,4095,4095
13875,4095,4095,4095
13877,2161,4095,4095
13879,4095,4095,4095
13881,4095,329,4095
13883,173,197,4095
13884,4095,167,4095
13886,4095,614,4095
13888,144,4095,4095
13890,4095,4095,4095
13892,4095,4095,4095
13894,119,4095,4095
13895,4095,1869,4095
13897,4095,112,4095
13899,142,145,4095
13901,4095,139,4095
13903,4095,594,4095
13905,192,4095,160
13906,4095,4095,132
13908,4095,4095,4095
13910,4095,4095,4095
13912,4095,4095,269
13914,4095,137,171
13916,4095,144,155
13917,4095,192,294
13919,4095,133,4095
13921,192,4095,159
13923,4095,4095,119
13924,4095,4095,123
13926,4095,4095,4095
13928,4095,4095,301
13930,4095,145,152
13932,4095,149,154
13933,4095,142,154
13935,4095,239,359
13937,190,4095,4095
13939,4095,4095,134
13941,4095,4095,125
13942,4095,4095,131
13944,4095,4095,4095
13946,4095,443,272
13948,157,156,170
13949,187,286,169
13951,4095,320,250
13953,196,176,187
13954,303,4095,4095
13956,191,4095,167
13958,135,4095,133
13960,129,4095,133
13962,354,4095,419
13963,326,302,257
13965,144,162,170
13967,177,176,181
13968,201,181,195
13970,202,272,271
13972,294,4095,243
13973,204,4095,158
13975,123,4095,146
13977,154,4095,144
13978,112,4095,237
13980,350,4095,270
13982,128,163,153
13984,177,167,208
13985,176,182,205
13987,274,315,309
13989,246,237,224
13990,157,4095,157
13992,148,911,159
13994,133,4095,131
13995,173,4095,226
13997,298,267,250
13999,171,147,175
14000,176,176,105
14002,192,193,208
14004,336,272,261
14005,233,414,256
14007,165,171,187
14009,169,161,193
14010,174,197,194
14012,165,179,188
14014,251,240,240
14015,175,187,195
14017,183,188,194
14018,196,1863,162
14020,154,4095,287
14022,193,4095,189
14024,138,4095,135
14025,126,4095,166
14027,158,4095,136
14029,128,4095,182
14031,208,4095,219
14032,129,4095,139
14034,144,4095,160
14036,142,4095,159
14038,116,4095,143
14039,286,4095,192
14041,144,4095,217
14043,128,4095,138
14045,125,4095,123
14046,109,4095,212
14048,208,4095,162
14050,109,4095,166
14051,141,4095,146
14053,134,4095,137
14055,133,4095,4095
14057,144,4095,154
14058,134,4095,64
14060,176,4095,144
14062,127,4095,140
14064,199,4095,206
14065,203,4095,157
14067,117,4095,150
14069,226,4095,97
14070,144,4095,126
14072,158,4095,4095
14074,147,4095,144
14076,125,4095,142
14077,118,4095,151
14079,117,4095,1260
14081,176,4095,193
14083,139,4095,112
14085,147,4095,159
14086,142,4095,167
14088,131,4095,132
14090,164,4095,184
14091,142,4095,144
14093,112,4095,197
14095,133,4095,80
14097,218,4095,202
14098,207,4095,197
14100,125,4095,132
14102,147,4095,141
14104,157,4095,161
14105,129,4095,4095
14107,158,4095,164
14109,127,4095,139
14111,123,4095,135
14112,115,4095,119
14114,193,4095,216
14116,144,4095,158
14118,143,4095,153
14119,134,4095,139
14121,94,4095,96
14123,223,4095,240
14124,151,4095,124
14126,116,4095,107
14128,128,4095,125
14129,125,4095,4095
14131,176,4095,193
14133,134,4095,128
14135,137,4095,143
14137,187,4095,153
14138,215,4095,3415
14140,179,4095,151
14142,115,4095,131
14144,121,4095,135
14145,114,4095,131
14147,151,4095,196
14149,163,4095,186
14151,134,4095,144
14152,128,4095,141
14154,158,4095,154
14156,145,4095,4095
14158,134,4095,151
14159,118,4095,102
14161,112,4095,131
14163,134,4095,4095
14165,155,4095,174
14166,161,4095,130
14168,122,4095,153
14170,149,4095,144
14172,123,4095,4095
14173,129,4095,182
14175,115,4095,131
14177,117,4095,109
14179,124,4095,139
14180,119,4095,190
14182,142,4095,170
14184,116,4095,139
14185,143,4095,140
14187,130,4095,129
14189,87,4095,4095
14191,151,4095,157
14192,110,4095,130
14194,117,4095,124
14196,112,4095,4095
14198,193,4095,176
14199,151,4095,170
14201,130,4095,134
14203,131,4095,147
14205,124,4095,138
14206,176,4095,176
14208,139,4095,133
14210,119,4095,113
14212,118,4095,130
14213,107,4095,4095
14215,162,4095,146
14217,130,4095,121
14219,128,4095,144
14220,142,4095,78
14222,111,4095,4095
14224,167,4095,122
14226,123,4095,130
14227,171,4095,123
14229,123,4095,3166
14231,166,4095,193
14233,164,4095,165
14234,139,4095,130
14236,143,4095,160
14238,115,4095,97
14239,102,4095,349
14241,145,4095,121
14243,182,4095,133
14245,127,4095,119
14246,126,4095,4095
14248,183,4095,167
14250,132,4095,131
14252,139,4095,142
14253,144,4095,155
14255,127,4095,4095
14257,167,4095,134
14259,118,4095,141
14260,113,4095,114
14262,132,4095,1030
14264,162,4095,206
14266,150,4095,175
14268,128,4095,135
14269,126,4095,161
14271,128,4095,142
14273,128,4095,4095
14275,114,4095,119
14276,122,4095,129
14278,113,4095,134
14280,126,4095,4095
14282,151,4095,166
14283,182,4095,91
14285,128,4095,134
14287,161,4095,99
14288,125,4095,4095
14290,270,4095,174
14292,141,4095,135
14294,124,4095,139
14295,115,4095,151
14297,122,4095,180
14299,156,4095,159
14301,133,4095,133
14302,127,4095,145
14304,138,4095,128
14306,143,4095,4095
14308,143,4095,145
14309,135,4095,136
14311,128,4095,138
14313,83,4095,4095
14315,158,4095,144
14316,154,4095,151
14318,125,4095,143
14320,145,4095,141
14322,131,4095,4095
14323,129,4095,162
14325,123,4095,219
14327,199,4095,150
14329,128,4095,175
14330,118,4095,4095
14332,162,4095,156
14334,124,4095,146
14336,131,4095,144
14337,144,4095,141
14339,98,4095,4095
14341,147,4095,144
14343,106,4095,128
14344,117,4095,138
14346,125,4095,4095
14348,189,4095,173
14350,144,4095,155
14351,136,4095,141
14353,133,4095,138
14355,115,4095,2757
14357,186,4095,191
14358,138,4095,114
14360,80,4095,125
14362,120,4095,143
14363,112,4095,4095
14365,129,4095,204
14367,131,4095,149
14369,135,4095,144
14370,137,4095,91
14372,123,4095,4095
14374,166,4095,146
14376,128,4095,125
14377,127,4095,127
14379,125,4095,4095
14381,243,4095,175
14383,157,4095,172
14384,132,4095,107
14386,138,4095,150
14388,128,4095,148
14390,133,4095,276
14391,142,4095,138
14393,108,4095,116
14395,128,4095,129
14397,117,4095,4095
14398,135,4095,155
14400,147,4095,157
14402,143,4095,4095
14404,113,4095,4095
14406,109,4095,4095
14407,106,4095,147
14409,128,4095,3377
14411,88,4095,4095
14413,81,4095,4095
14414,80,4095,4095
14416,100,4095,4095
14418,117,4095,4095
14420,128,4095,4095
14422,42,4095,4095
14423,115,4095,4095
14425,98,4095,4095
14427,93,4095,4095
14429,81,4095,4095
14430,95,4095,4095
14432,91,4095,4095
14434,129,4095,4095
14436,101,4095,4095
14437,47,4095,4095
14439,97,4095,4095
14441,94,4095,4095
14443,83,4095,4095
14444,60,4095,4095
14446,80,4095,4095
14448,84,4095,4095
14450,87,4095,4095
14451,128,4095,4095
14453,72,4095,4095
14455,105,4095,4095
14457,97,4095,4095
14458,85,4095,4095
14460,91,4095,4095
14462,91,4095,4095
14464,104,4095,4095
14466,80,4095,4095
14467,93,4095,4095
14469,100,4095,4095
14471,112,4095,4095
14473,124,4095,4095
14474,97,4095,4095
14476,81,4095,4095
14478,89,4095,4095
14480,66,4095,4095
14481,94,4095,4095
14483,79,4095,4095
14485,95,4095,4095
14487,123,4095,4095
14488,101,4095,4095
14490,128,4095,4095
14492,94,4095,4095
14494,91,4095,4095
14496,81,4095,4095
14497,94,4095,4095
14499,83,4095,4095
14501,123,4095,4095
14503,104,4095,4095
14504,98,4095,4095
14506,112,4095,4095
14508,92,4095,4095
14510,96,4095,4095
14511,82,4095,4095
14513,173,4095,4095
14515,89,4095,4095
14517,117,4095,4095
14519,99,4095,4095
14520,244,4095,4095
14522,93,4095,4095
14524,145,4095,4095
14526,80,4095,4095
14527,86,4095,4095
14529,90,4095,4095
14531,82,4095,4095
14533,86,4095,4095
14534,139,4095,4095
14536,108,4095,4095
14538,112,4095,4095
14540,142,4095,4095
14542,84,4095,4095
14543,91,4095,4095
14545,95,4095,4095
14547,90,4095,4095
14549,82,4095,4095
14550,117,4095,4095
14552,126,4095,4095
14554,99,4095,4095
14556,90,4095,4095
14557,66,4095,4095
14559,85,4095,4095
14561,87,4095,4095
14563,87,4095,4095
14564,93,4095,4095
14566,81,4095,4095
14568,135,4095,4095
14570,219,4095,4095
14572,85,4095,4095
14573,140,4095,4095
14575,92,4095,4095
14577,95,4095,4095
14579,88,4095,4095
14580,81,4095,4095
14582,89,4095,4095
14584,114,4095,4095
14586,106,4095,4095
14587,97,4095,4095
14589,107,4095,4095
14591,103,4095,4095
14593,98,4095,4095
14595,95,4095,4095
14596,81,4095,4095
14598,90,4095,4095
14600,137,4095,4095
14602,111,4095,4095
14603,113,4095,4095
14605,98,4095,4095
14607,100,4095,4095
14609,81,4095,4095
14610,35,4095,4095
14612,81,4095,4095
14614,81,4095,4095
14616,112,4095,4095
14618,146,4095,4095
14619,110,4095,4095
14621,102,4095,4095
14623,112,4095,4095
14625,91,4095,4095
14627,93,4095,4095
14628,95,4095,4095
14630,112,4095,4095
14632,135,4095,4095
14634,131,4095,4095
14635,111,4095,4095
14637,115,4095,4095
14639,87,4095,4095
14641,112,4095,4095
14643,89,4095,4095
14644,80,4095,4095
14646,83,4095,4095
14648,154,4095,1343
14650,128,4095,126
14651,93,4095,4095
14653,160,4095,133
14655,128,4095,4095
14657,146,4095,187
14658,141,4095,137
14660,81,4095,135
14662,112,4095,133
14664,266,4095,217
14665,189,4095,176
14667,135,4095,143
14669,129,4095,144
14671,146,4095,164
14672,122,4095,4095
14674,161,4095,132
14676,128,4095,126
14678,119,4095,128
14679,185,4095,144
14681,115,4095,113
14683,150,4095,153
14685,131,4095,135
14686,144,4095,144
14688,135,4095,134
14690,176,4095,189
14691,122,4095,119
14693,110,4095,133
14695,129,4095,109
14697,151,4095,183
14698,162,4095,166
14700,129,4095,131
14702,86,4095,137
14704,164,4095,161
14705,112,4095,83
14707,157,4095,165
14709,128,4095,130
14710,115,4095,129
14712,112,4095,132
14714,161,4095,162
14716,175,4095,169
14717,134,4095,119
14719,135,4095,140
14721,160,4095,119
14723,242,4095,191
14724,144,4095,151
14726,121,4095,125
14728,183,4095,167
14729,113,4095,128
14731,179,4095,182
14733,143,4095,80
14735,141,4095,146
14736,128,4095,145
14738,141,4095,112
14740,158,4095,179
14742,118,4095,205
14743,112,4095,112
14745,113,4095,114
14747,142,4095,202
14749,172,4095,203
14750,141,4095,131
14752,138,4095,162
14754,148,4095,191
14755,123,4095,4095
14757,171,4095,167
14759,128,4095,115
14761,115,4095,129
14762,144,4095,144
14764,205,4095,183
14766,187,4095,142
14768,128,4095,158
14769,135,4095,168
14771,144,4095,122
14773,126,4095,225
14775,138,4095,143
14776,117,4095,128
14778,124,4095,103
14780,113,4095,4095
14782,169,4095,137
14783,159,4095,131
14785,155,4095,144
14787,154,4095,161
14789,75,4095,4095
14790,221,4095,175
14792,129,4095,135
14794,126,4095,123
14796,118,4095,133
14797,147,4095,326
14799,154,4095,173
14801,137,4095,128
14802,144,4095,153
14804,162,4095,141
14806,176,4095,4095
14808,126,4095,146
14810,119,4095,135
14811,123,4095,135
14813,142,4095,4095
14815,178,4095,191
14817,137,4095,144
14818,122,4095,144
14820,155,4095,167
14822,126,4095,4095
14824,159,4095,192
14825,112,4095,131
14827,119,4095,118
14829,127,4095,137
14831,170,4095,272
14832,179,4095,165
14834,115,4095,150
14836,138,4095,148
14837,219,4095,135
14839,143,4095,4095
14841,153,4095,128
14843,112,4095,126
14845,129,4095,71
14846,103,4095,1692
14848,201,4095,187
14850,130,4095,123
14851,104,4095,156
14853,130,4095,153
14855,128,4095,128
14857,250,4095,129
14858,129,4095,140
14860,119,4095,128
14862,114,4095,121
14864,237,4095,291
14865,166,4095,177
14867,131,4095,126
14869,135,4095,139
14871,155,4095,171
14872,115,4095,4095
14874,176,4095,166
14876,198,4095,117
14878,75,4095,112
14879,59,4095,142
14881,160,4095,176
14883,157,4095,113
14884,129,4095,139
14886,103,4095,144
14888,129,4095,124
14890,162,4095,144
14891,144,4095,149
14893,114,4095,138
14895,131,4095,112
14897,162,4095,194
14898,177,4095,176
14900,119,4095,122
14902,129,4095,141
14903,144,4095,160
14905,124,4095,145
14907,105,4095,159
14909,123,4095,118
14910,115,4095,115
14912,69,4095,128
14914,181,4095,157
14916,160,4095,171
14917,135,4095,137
14919,129,4095,151
14921,99,4095,112
14922,112,4095,4095
14924,121,4095,145
14926,123,4095,112
14928,119,4095,209
14929,128,4095,134
14931,222,4095,165
14933,155,4095,124
14935,134,4095,80
14936,98,4095,135
14938,139,4095,139
14940,188,4095,157
14941,137,4095,208
14943,112,4095,129
14945,128,4095,151
14947,150,4095,176
14948,138,4095,171
14950,126,4095,144
14952,153,4095,149
14954,155,4095,156
14955,118,4095,139
14957,178,4095,167
14959,176,4095,114
14960,125,4095,133
14962,114,4095,133
14964,162,4095,182
14966,158,4095,231
14967,130,4095,132
14969,114,4095,149
14971,239,4095,153
14973,163,4095,314
14974,160,4095,151
14976,90,4095,117
14978,112,4095,140
14979,113,4095,128
14981,167,4095,169
14983,189,4095,139
14985,117,4095,144
14986,93,4095,146
14988,126,4095,128
14990,176,4095,182
14992,134,4095,144
14993,76,4095,202
14995,128,4095,121
14997,135,4095,845
14998,176,4095,176
15000,130,4095,129
15002,147,4095,144
15004,163,4095,171
15005,126,4095,4095
15007,158,4095,131
15009,128,4095,125
15011,143,4095,128
15012,119,4095,137
15014,323,4095,221
15016,161,4095,163
15018,133,4095,137
15019,162,4095,154
15021,162,4095,146
15023,142,4095,274
15025,144,4095,128
15026,179,4095,102
15028,141,4095,128
15030,118,4095,4095
15032,169,4095,178
15033,155,4095,133
15035,141,4095,147
15037,149,4095,162
15039,81,4095,4095
15040,299,4095,170
15042,123,4095,141
15044,117,4095,70
15045,133,4095,119
15047,131,4095,811
15049,111,4095,174
15051,119,4095,129
15052,112,4095,189
15054,158,4095,127
15056,195,4095,4095
15058,144,4095,133
15059,128,4095,133
15061,201,4095,130
15063,79,4095,4095
15065,199,4095,209
15066,166,4095,164
15068,113,4095,149
15070,99,4095,127
15071,142,4095,4095
15073,114,4095,194
15075,125,4095,111
15077,116,4095,113
15078,72,4095,117
15080,118,4095,4095
15082,183,4095,176
15084,121,4095,161
15085,137,4095,145
15087,161,4095,185
15089,134,4095,4095
15091,176,4095,145
15092,77,4095,118
15094,121,4095,133
15096,137,4095,4095
15098,177,4095,181
15099,168,4095,158
15101,199,4095,165
15103,226,4095,161
15105,128,4095,4095
15106,177,4095,220
15108,125,4095,112
15110,121,4095,124
15112,128,4095,135
15113,121,4095,4095
15115,213,4095,173
15117,128,4095,144
15119,142,4095,144
15120,134,4095,149
15122,90,4095,4095
15124,160,4095,131
15126,112,4095,106
15127,118,4095,113
15129,112,4095,4095
15131,115,4095,176
15133,160,4095,163
15134,141,4095,139
15136,143,4095,129
15138,128,4095,325
15140,144,4095,282
15141,160,4095,133
15143,117,4095,112
15145,124,4095,125
15146,98,4095,4095
15148,183,4095,179
15150,149,4095,128
15152,151,4095,198
15153,4095,4095,238
15155,180,4095,4095
15157,162,4095,149
15159,107,4095,153
15161,147,4095,165
15162,142,4095,2765
15164,170,4095,213
15166,180,4095,171
15168,4095,4095,112
15169,4095,4095,256
15171,220,4095,187
15173,4095,4095,143
15175,4095,4095,97
15177,4095,4095,102
15178,4095,4095,102
15180,4095,4095,4095
15182,196,4095,154
15184,4095,4095,146
15186,145,4095,167
15187,167,4095,144
15189,432,4095,4095
15191,202,4095,165
15193,114,4095,148
15194,119,4095,145
15196,117,4095,4095
15198,195,4095,189
15200,128,4095,125
15201,134,4095,182
15203,132,4095,159
15205,123,4095,3410
15207,164,4095,181
15208,124,4095,146
15210,119,4095,128
15212,125,4095,130
15214,174,4095,240
15215,181,4095,163
15217,134,4095,149
15219,4095,4095,146
15221,272,4095,263
15222,141,4095,4095
15224,157,4095,156
15226,132,4095,148
15228,162,4095,169
15229,4095,4095,4095
15231,201,4095,197
15233,145,4095,141
15235,4095,4095,122
15237,4095,4095,199
15239,45,4095,4095
15240,4095,4095,116
15242,4095,4095,119
15244,142,4095,143
15246,4095,4095,191
15247,4095,4095,183
15249,183,4095,167
15251,4095,4095,112
15253,4095,4095,117
15255,203,4095,208
15256,189,4095,128
15258,4095,4095,123
15260,4095,4095,145
15262,202,4095,187
15264,4095,4095,176
15265,4095,4095,195
15267,4095,4095,97
15269,4095,4095,112
15271,4095,4095,238
15273,4095,4095,3805
15274,4095,4095,115
15276,4095,4095,164
15278,143,4095,176
15280,4095,4095,4095
15282,3408,4095,208
15284,4095,4095,112
15285,4095,4095,34
15287,4095,4095,292
15289,133,4095,4095
15291,4095,4095,125
15293,4095,4095,131
15294,1662,4095,142
15296,4095,4095,4095
15298,4095,4095,155
15300,147,4095,125
15302,4095,4095,103
15304,4095,4095,187
15305,201,4095,4095
15307,4095,4095,75
15309,4095,4095,96
15311,142,4095,128
15312,193,4095,178
15314,4095,4095,208
15316,183,4095,174
15318,4095,4095,117
15320,4095,4095,123
15321,4095,4095,208
15323,141,4095,80
15325,4095,4095,138
15327,4095,4095,117
15328,149,4095,216
15330,4095,4095,205
15332,4095,4095,204
15334,4095,4095,92
15336,4095,4095,127
15337,4095,4095,251
15339,147,4095,4095
15341,4095,4095,211
15343,4095,4095,127
15345,210,4095,162
15346,4095,4095,4095
15348,4095,4095,140
15350,128,4095,106
15352,4095,4095,107
15354,4095,4095,241
15356,182,4095,4095
15357,4095,4095,128
15359,4095,4095,115
15361,176,4095,155
15363,4095,4095,4095
15365,4095,4095,157
15366,190,4095,245
15368,4095,4095,113
15370,4095,4095,224
15372,195,4095,4095
15374,4095,4095,65
15375,4095,4095,127
15377,4095,4095,126
15379,182,4095,2000
15381,4095,4095,195
15383,141,4095,175
15384,4095,4095,106
15386,4095,4095,144
15388,4095,4095,213
15390,4095,4095,119
15392,4095,4095,122
15394,4095,4095,110
15395,148,4095,240
15397,4095,4095,211
15399,4095,4095,164
15401,4095,4095,123
15403,4095,4095,115
15404,4095,4095,179
15406,191,4095,163
15408,4095,4095,113
15410,4095,4095,111
15412,144,4095,192
15413,4095,4095,4095
15415,4095,4095,155
15417,149,4095,113
15419,4095,4095,117
15421,4095,4095,177
15422,162,4095,4095
15424,4095,4095,112
15426,4095,4095,124
15428,116,4095,162
15430,4095,4095,4095
15432,4095,4095,162
15433,183,4095,135
15435,4095,4095,128
15437,4095,4095,149
15439,164,4095,4095
15441,4095,4095,61
15442,4095,4095,129
15444,4095,4095,128
15446,1002,4095,4095
15448,4095,4095,163
15450,152,4095,144
15451,4095,4095,100
15453,4095,4095,134
15455,4095,4095,4095
15457,4095,4095,119
15459,4095,4095,128
15461,4095,4095,128
15462,145,4095,4095
15464,4095,4095,272
15466,4095,4095,135
15468,4095,4095,122
15470,4095,4095,118
15472,4095,4095,4095
15473,161,4095,147
15475,4095,4095,117
15477,4095,4095,113
15479,147,4095,4095
15481,4095,4095,188
15483,1386,4095,201
15484,138,4095,102
15486,4095,4095,112
15488,4095,4095,4095
15490,144,4095,201
15492,4095,4095,114
15493,4095,4095,111
15495,144,4095,4095
15497,4095,4095,4095
15499,4095,4095,143
15501,153,4095,58
15502,4095,4095,113
15504,4095,4095,231
15506,171,4095,4095
15508,4095,4095,118
15510,4095,4095,112
15512,139,4095,3087
15513,4095,4095,4095
15515,4095,4095,135
15517,163,4095,135
15519,4095,4095,128
15521,4095,4095,143
15522,4095,4095,4095
15524,4095,4095,112
15526,4095,4095,130
15528,4095,4095,214
15530,4095,4095,4095
15532,4095,4095,154
15534,208,4095,146
15535,4095,4095,133
15537,4095,4095,130
15539,4095,4095,4095
15541,4095,4095,116
15543,4095,4095,112
15544,4095,4095,154
15546,154,4095,4095
15548,4095,4095,160
15550,4095,4095,166
15552,4095,4095,94
15554,4095,4095,118
15555,4095,4095,4095
15557,140,4095,131
15559,4095,4095,123
15561,4095,4095,128
15563,4095,4095,4095
15565,4095,4095,151
15566,4095,4095,121
15568,4095,4095,125
15570,4095,4095,91
15572,4095,4095,4095
15574,195,4095,166
15575,4095,4095,113
15577,4095,4095,139
15579,158,4095,4095
15581,4095,4095,4095
15583,4095,4095,145
15585,4095,4095,112
15586,4095,4095,4095
15588,4095,4095,4095
15590,165,4095,2024
15592,4095,4095,98
15594,4095,4095,134
15596,4095,4095,4095
15598,4095,4095,4095
15599,4095,4095,109
15601,4095,4095,117
15603,4095,4095,4095
15605,4095,4095,4095
15607,171,4095,4095
15609,4095,4095,115
15611,4095,4095,4095
15612,4095,4095,4095
15614,4095,4095,4095
15616,4095,4095,138
15618,4095,4095,2397
15620,4095,4095,4095
15622,4095,4095,4095
15624,156,4095,4095
15626,4095,4095,131
15627,4095,4095,4095
15629,4095,4095,4095
15631,4095,4095,4095
15633,4095,4095,1040
15635,4095,4095,4095
15637,4095,4095,4095
15639,4095,4095,4095
15641,4095,4095,4095
15643,4095,4095,1958
15645,4095,4095,4095
15647,4095,4095,4095
15648,4095,4095,4095
15650,4095,4095,4095
15652,4095,4095,4095
15654,4095,4095,4095
15656,4095,4095,4095
15658,4095,4095,4095
15660,4095,4095,4095
15662,4095,4095,4095
15664,4095,4095,4095
15666,4095,4095,4095
15668,4095,4095,4095
15669,4095,4095,4095
15671,4095,4095,4095
15673,4095,4095,4095
15675,4095,4095,4095
15677,4095,4095,4095
15679,4095,4095,4095
15681,4095,4095,4095
15683,4095,4095,4095
15685,4095,4095,4095
15687,4095,4095,4095
15689,4095,4095,4095
15691,4095,4095,4095
15692,4095,4095,4095
15694,4095,4095,4095
15696,4095,4095,4095
15698,4095,4095,4095
15700,4095,4095,4095
15702,4095,4095,4095
15704,4095,4095,4095
15706,4095,4095,4095
15708,4095,4095,4095
15710,4095,4095,4095
15712,4095,3855,4095
15713,4095,3089,4095
15715,4095,3549,4095
15717,4095,4095,4095
15719,4095,4095,4095
15721,4095,4095,4095
15723,4095,4095,4095
15725,4095,4095,4095
15727,4095,3792,4095
15729,4095,1931,4095
15731,4095,1595,4095
15733,4095,2409,4095
15734,4095,4095,4095
15736,4095,4095,4095
15738,4095,4095,4095
15740,4095,4095,4095
15742,4095,4095,4095
15744,4095,1915,4095
15746,4095,395,4095
15748,4095,304,4095
15750,4095,1388,4095
15751,4095,2988,4095
15753,4095,4095,4095
15755,4095,4095,4095
15757,4095,4095,4095
15759,4095,2367,4095
15761,4095,496,4095
15763,4095,100,4095
15765,4095,129,4095
15766,4095,210,4095
15768,4095,2112,4095
15770,4095,3753,4095
15772,4095,4095,4095
15774,4095,3101,4095
15776,4095,1195,4095
15778,4095,102,4095
15780,4095,103,4095
15781,4095,111,4095
15783,4095,128,4095
15785,4095,1168,4095
15787,4095,2688,4095
15789,4095,2958,4095
15791,4095,1963,4095
15793,4095,118,4095
15795,4095,99,4095
15796,4095,91,4095
15798,4095,169,4095
15800,4095,119,4095
15802,4095,576,4095
15804,4095,2053,4095
15805,4095,2240,4095
15807,4095,1438,4095
15809,4095,112,4095
15811,4095,101,4095
15813,4095,93,4095
15815,4095,100,4095
15816,4095,114,4095
15818,4095,105,4095
15820,4095,1170,4095
15822,4095,1591,4095
15824,4095,971,4095
15826,4095,113,4095
15828,4095,100,4095
15829,4095,97,4095
15831,4095,112,4095
15833,4095,111,4095
15835,4095,113,4095
15837,4095,801,4095
15838,4095,1260,4095
15840,4095,670,4095
15842,4095,110,4095
15844,4095,106,4095
15846,4095,90,4095
15848,4095,112,4095
15849,4095,114,4095
15851,4095,101,4095
15853,4095,117,4095
15855,4095,919,4095
15857,4095,435,4095
15858,4095,121,4095
15860,4095,103,4095
15862,4095,89,4095
15864,4095,108,4095
15866,4095,101,4095
15867,4095,108,4095
15869,4095,111,4095
15871,4095,694,4095
15873,4095,565,4095
15875,4095,123,4095
15877,4095,112,4095
15878,4095,95,4095
15880,4095,64,4095
15882,4095,112,4095
15884,4095,119,4095
15886,4095,110,4095
15887,4095,459,4095
15889,4095,639,4095
15891,4095,128,4095
15893,4095,103,4095
15895,4095,85,4095
15896,4095,82,4095
15898,4095,106,4095
15900,4095,119,4095
15902,4095,103,4095
15904,4095,493,4095
15905,4095,821,4095
