time,emg
0.01770925521850586,110.0
0.03211021423339844,108.0
0.04132509231567383,111.0
0.04983925819396973,108.0
0.05796098709106445,106.0
0.06416916847229004,100.0
0.06774711608886719,93.0
0.07151603698730469,111.0
0.07521700859069824,116.0
0.07890725135803223,104.0
0.08271217346191406,144.0
0.08645009994506836,117.0
0.09299612045288086,108.0
0.09710025787353516,129.0
0.10097813606262207,143.0
0.10489702224731445,123.0
0.10876011848449707,110.0
0.1151590347290039,91.0
0.11966419219970703,107.0
0.12615609169006348,125.0
0.13048911094665527,111.0
0.13429999351501465,101.0
0.13826203346252441,111.0
0.1419970989227295,127.0
0.14795804023742676,112.0
0.15185213088989258,100.0
0.15604829788208008,124.0
0.15974926948547363,116.0
0.16356992721557617,137.0
0.16724419593811035,132.0
0.1733100414276123,125.0
0.1772902011871338,122.0
0.1815180778503418,118.0
0.18520617485046387,135.0
0.1892380714416504,111.0
0.19295525550842285,86.0
0.1970219612121582,102.0
0.20096111297607422,127.0
0.205186128616333,126.0
0.20905303955078125,111.0
0.2151632308959961,117.0
0.2199690341949463,141.0
0.2240290641784668,156.0
0.22806215286254883,152.0
0.23482203483581543,163.0
0.23956012725830078,129.0
0.24359512329101562,144.0
0.24892210960388184,158.0
0.2530992031097412,164.0
0.2598400115966797,144.0
0.2645261287689209,133.0
0.2686440944671631,133.0
0.27314019203186035,134.0
0.2772979736328125,131.0
0.28182411193847656,131.0
0.2862269878387451,128.0
0.29346728324890137,119.0
0.2981140613555908,130.0
0.3023502826690674,134.0
0.3098311424255371,138.0
0.31484508514404297,128.0
0.3194561004638672,135.0
0.3266260623931885,131.0
0.3315920829772949,140.0
0.3353910446166992,134.0
0.33948493003845215,109.0
0.3433051109313965,109.0
0.3475840091705322,112.0
0.35156726837158203,114.0
0.35622310638427734,116.0
0.3603169918060303,112.0
0.3646721839904785,115.0
0.3685760498046875,112.0
0.3727712631225586,103.0
0.3768951892852783,113.0
0.38150715827941895,117.0
0.38546013832092285,131.0
0.38973212242126465,138.0
0.39375901222229004,136.0
0.3981320858001709,107.0
0.40210914611816406,120.0
0.40662717819213867,136.0
0.4107022285461426,102.0
0.4179041385650635,102.0
0.42247724533081055,117.0
0.42651915550231934,133.0
0.4309079647064209,93.0
0.43517422676086426,76.0
0.43966221809387207,105.0
0.4437530040740967,99.0
0.4484701156616211,130.0
0.4529380798339844,140.0
0.46006202697753906,131.0
0.4647650718688965,134.0
0.46907806396484375,141.0
0.47668910026550293,129.0
0.4811210632324219,130.0
0.48516416549682617,151.0
0.48929309844970703,146.0
0.49330615997314453,113.0
0.49722814559936523,107.0
0.5012869834899902,130.0
0.5054621696472168,107.0
0.509573221206665,105.0
0.5137879848480225,122.0
0.5180790424346924,121.0
0.5224289894104004,127.0
0.5273921489715576,152.0
0.5321853160858154,153.0
0.5367951393127441,152.0
0.5419831275939941,158.0
0.5489780902862549,166.0
0.5541641712188721,166.0
0.5583691596984863,160.0
0.5626511573791504,166.0
0.5673251152038574,165.0
0.5736730098724365,159.0
0.5787820816040039,126.0
0.5836842060089111,137.0
0.5882201194763184,151.0
0.5924150943756104,154.0
0.5977621078491211,154.0
0.603013277053833,145.0
0.6091642379760742,146.0
0.6165671348571777,158.0
0.6220870018005371,162.0
0.6268951892852783,166.0
0.6321520805358887,150.0
0.6366090774536133,143.0
0.6413881778717041,140.0
0.6455371379852295,148.0
0.6507232189178467,166.0
0.6573929786682129,166.0
0.6655921936035156,157.0
0.6704962253570557,150.0
0.675286054611206,162.0
0.6822631359100342,139.0
0.6903302669525146,160.0
0.6958041191101074,140.0
0.7009592056274414,128.0
0.7055211067199707,141.0
0.7104980945587158,158.0
0.7154152393341064,148.0
0.7202990055084229,144.0
0.7255120277404785,184.0
0.7304091453552246,179.0
0.7352120876312256,112.0
0.7398250102996826,146.0
0.7446882724761963,165.0
0.749474048614502,143.0
0.7537732124328613,139.0
0.7585041522979736,160.0
0.7650880813598633,156.0
0.7701010704040527,147.0
0.7745680809020996,134.0
0.7790570259094238,153.0
0.7834880352020264,169.0
0.7900691032409668,170.0
0.7951440811157227,175.0
0.7996542453765869,172.0
0.8040120601654053,144.0
0.8084590435028076,164.0
0.8149509429931641,170.0
0.8200211524963379,172.0
0.8245220184326172,184.0
0.8288521766662598,185.0
0.8332092761993408,177.0
0.8397481441497803,163.0
0.8447282314300537,148.0
0.8515090942382812,131.0
0.8561491966247559,161.0
0.8604211807250977,159.0
0.8650970458984375,160.0
0.8697030544281006,166.0
0.8741860389709473,179.0
0.8787152767181396,195.0
0.8832881450653076,173.0
0.8898539543151855,154.0
0.8950021266937256,176.0
0.8996181488037109,186.0
0.9041652679443359,197.0
0.9087131023406982,162.0
0.9153223037719727,170.0
0.9204161167144775,159.0
0.924962043762207,143.0
0.9316751956939697,158.0
0.9367032051086426,160.0
0.9413051605224609,153.0
0.9457311630249023,156.0
0.9506480693817139,134.0
0.9554362297058105,116.0
0.9599161148071289,168.0
0.9645991325378418,196.0
0.9688661098480225,188.0
0.9734442234039307,184.0
0.9779798984527588,172.0
0.9848949909210205,202.0
0.9895670413970947,202.0
0.9938821792602539,201.0
0.9984951019287109,191.0
1.0030732154846191,186.0
1.0100491046905518,191.0
1.0148890018463135,187.0
1.0195550918579102,167.0
1.026569128036499,195.0
1.0313842296600342,187.0
1.0358469486236572,180.0
1.0431151390075684,186.0
1.0479280948638916,175.0
1.0523521900177002,199.0
1.0594801902770996,195.0
1.0645511150360107,197.0
1.0692112445831299,199.0
1.0765290260314941,205.0
1.0813992023468018,205.0
1.0858640670776367,179.0
1.0931153297424316,183.0
1.0980160236358643,169.0
1.1025390625,172.0
1.1097891330718994,184.0
1.1146960258483887,187.0
1.1192262172698975,193.0
1.1265780925750732,174.0
1.1314032077789307,182.0
1.1358442306518555,199.0
1.1430673599243164,189.0
1.1479172706604004,203.0
1.1524171829223633,200.0
1.1596722602844238,203.0
1.1643891334533691,196.0
1.1687541007995605,201.0
1.1733410358428955,207.0
1.1779000759124756,200.0
1.1847600936889648,187.0
1.189474105834961,184.0
1.1938612461090088,184.0
1.1984541416168213,173.0
1.203104019165039,184.0
1.207604169845581,187.0
1.212049961090088,180.0
1.2165851593017578,190.0
1.223116159439087,181.0
1.228135108947754,171.0
1.2353641986846924,193.0
1.240666151046753,181.0
1.2451910972595215,188.0
1.24983811378479,207.0
1.2565371990203857,178.0
1.2617502212524414,169.0
1.266427993774414,168.0
1.2734410762786865,156.0
1.2787771224975586,166.0
1.2836329936981201,153.0
1.291147232055664,171.0
1.299152135848999,179.0
1.3046391010284424,180.0
1.309406042098999,165.0
1.314237117767334,185.0
1.318824052810669,187.0
1.3241541385650635,186.0
1.3288261890411377,207.0
1.3340790271759033,215.0
1.3389101028442383,211.0
1.3434741497039795,211.0
1.349215030670166,217.0
1.35392427444458,210.0
1.3590781688690186,213.0
1.3636863231658936,200.0
1.368058204650879,197.0
1.3731772899627686,199.0
1.3777663707733154,198.0
1.3851242065429688,192.0
1.3906292915344238,194.0
1.3950762748718262,193.0
1.3996212482452393,198.0
1.4024991989135742,202.0
1.409769058227539,219.0
1.41493821144104,212.0
1.419173240661621,205.0
1.4265391826629639,201.0
1.4317703247070312,209.0
1.4365320205688477,206.0
1.4411170482635498,185.0
1.4458739757537842,180.0
1.4504761695861816,202.0
1.457336187362671,185.0
1.4624080657958984,164.0
1.4670510292053223,173.0
1.4739799499511719,173.0
1.4792442321777344,161.0
1.4843180179595947,195.0
1.4891331195831299,209.0
1.493718147277832,190.0
1.4984891414642334,179.0
1.5032222270965576,185.0
1.5081872940063477,204.0
1.515127182006836,206.0
1.5203320980072021,213.0
1.5250990390777588,207.0
1.5321061611175537,196.0
1.5374491214752197,200.0
1.5428853034973145,219.0
1.547673225402832,211.0
1.5528552532196045,184.0
1.56034517288208,190.0
1.565403938293457,204.0
1.570000171661377,208.0
1.5745470523834229,222.0
1.5790271759033203,220.0
1.5834860801696777,230.0
1.5902462005615234,228.0
1.5952630043029785,225.0
1.602241039276123,228.0
1.6070160865783691,220.0
1.6118249893188477,236.0
1.6168711185455322,219.0
1.623621940612793,219.0
1.6291489601135254,204.0
1.633817195892334,206.0
1.6384060382843018,206.0
1.6426811218261719,206.0
1.647252082824707,183.0
1.6515121459960938,193.0
1.6560931205749512,199.0
1.6602940559387207,206.0
1.6649832725524902,212.0
1.6695020198822021,219.0
1.6764039993286133,214.0
1.6811611652374268,213.0
1.6855549812316895,174.0
1.6903529167175293,200.0
1.6950459480285645,209.0
1.6997640132904053,198.0
1.7064990997314453,183.0
1.7118031978607178,176.0
1.7165813446044922,181.0
1.7234482765197754,182.0
1.7289140224456787,191.0
1.7336552143096924,174.0
1.740422010421753,152.0
1.7455980777740479,162.0
1.7502400875091553,172.0
1.7569701671600342,163.0
1.7621240615844727,158.0
1.7667241096496582,165.0
1.773346185684204,192.0
1.7784290313720703,189.0
1.782968282699585,162.0
1.7874009609222412,156.0
1.791888952255249,167.0
1.798478126525879,168.0
1.8034181594848633,179.0
1.810502052307129,204.0
1.8154771327972412,204.0
1.8199403285980225,197.0
1.827059030532837,202.0
1.8318281173706055,209.0
1.83634614944458,199.0
1.8435730934143066,198.0
1.848572015762329,242.0
1.8530702590942383,262.0
1.8602900505065918,226.0
1.8650681972503662,187.0
1.8695790767669678,222.0
1.8768482208251953,236.0
1.8818519115447998,225.0
1.8863952159881592,220.0
1.8934822082519531,206.0
1.898454189300537,225.0
1.9030673503875732,194.0
1.907642126083374,201.0
1.9122121334075928,212.0
1.916971206665039,210.0
1.9239881038665771,223.0
1.9291143417358398,234.0
1.9339561462402344,228.0
1.9410030841827393,231.0
1.9485399723052979,228.0
1.9536471366882324,209.0
1.958198070526123,224.0
1.9651601314544678,228.0
1.9706692695617676,221.0
1.9760351181030273,206.0
1.9805912971496582,208.0
1.985187292098999,206.0
1.9901840686798096,188.0
1.994746208190918,202.0
1.9998133182525635,203.0
2.0067760944366455,202.0
2.0118231773376465,192.0
2.016634225845337,203.0
2.0237209796905518,207.0
2.0288290977478027,190.0
2.03377628326416,215.0
2.0388879776000977,222.0
2.043174982070923,215.0
2.0477452278137207,215.0
2.052037239074707,222.0
2.0571231842041016,216.0
2.061598062515259,199.0
2.068655252456665,184.0
2.0734541416168213,193.0
2.077914237976074,171.0
2.0855860710144043,177.0
2.0910422801971436,185.0
2.0987279415130615,179.0
2.10412335395813,161.0
2.1095130443573,192.0
2.1151511669158936,205.0
2.1200411319732666,198.0
2.1253530979156494,201.0
2.132416009902954,206.0
2.1375482082366943,200.0
2.142200231552124,205.0
2.1493661403656006,213.0
2.1569769382476807,229.0
2.1619951725006104,227.0
2.166452169418335,183.0
2.1708381175994873,178.0
2.1753182411193848,211.0
2.182016134262085,190.0
2.1871330738067627,220.0
2.1916401386260986,213.0
2.198728084564209,223.0
2.2038352489471436,235.0
2.208763360977173,240.0
2.2157142162323,244.0
2.220690965652466,229.0
2.2252302169799805,252.0
2.232340097427368,252.0
2.237305164337158,245.0
2.242108106613159,226.0
2.249584197998047,246.0
2.2571589946746826,230.0
2.2623062133789062,222.0
2.267132043838501,220.0
2.2742972373962402,237.0
2.279402017593384,232.0
2.2842800617218018,208.0
2.2889082431793213,200.0
2.2933802604675293,217.0
2.2981462478637695,215.0
2.3025400638580322,205.0
2.3099911212921143,220.0
2.314882278442383,237.0
2.31962513923645,222.0
2.3272621631622314,222.0
2.3325400352478027,230.0
2.3371431827545166,223.0
2.341862916946411,217.0
2.3489551544189453,216.0
2.3546011447906494,226.0
2.3598122596740723,222.0
2.3644349575042725,228.0
2.368870973587036,232.0
2.373701333999634,215.0
2.3782620429992676,223.0
2.3832931518554688,240.0
2.3902971744537354,212.0
2.3954501152038574,227.0
2.400330066680908,233.0
2.4076101779937744,225.0
2.4151382446289062,243.0
2.420194149017334,244.0
2.424635171890259,255.0
2.4290130138397217,218.0
2.433516263961792,219.0
2.440390110015869,221.0
2.445449113845825,225.0
2.4502532482147217,223.0
2.4571683406829834,198.0
2.462207078933716,237.0
2.467026948928833,231.0
2.474045991897583,203.0
2.479067325592041,219.0
2.4838380813598633,235.0
2.4885621070861816,240.0
2.4928672313690186,253.0
2.4974842071533203,237.0
2.50199031829834,230.0
2.506920099258423,247.0
2.5118820667266846,250.0
2.5164542198181152,235.0
2.523480176925659,221.0
2.5286831855773926,248.0
2.5334951877593994,241.0
2.5407371520996094,210.0
2.546016216278076,204.0
2.551175117492676,243.0
2.555929183959961,235.0
2.5603699684143066,234.0
2.5650110244750977,241.0
2.5695319175720215,245.0
2.5764431953430176,242.0
2.5811891555786133,246.0
2.5854861736297607,227.0
2.5902962684631348,233.0
2.594755172729492,268.0
2.6018409729003906,245.0
2.6066040992736816,220.0
2.611304998397827,202.0
2.6161351203918457,213.0
2.620643138885498,234.0
2.6251730918884277,231.0
2.631981134414673,212.0
2.637111186981201,227.0
2.6417980194091797,231.0
2.6487350463867188,247.0
2.653719186782837,230.0
2.658514976501465,230.0
2.6657071113586426,248.0
2.670854091644287,255.0
2.675657033920288,265.0
2.6827480792999268,282.0
2.690115213394165,256.0
2.6951522827148438,211.0
2.699960231781006,233.0
2.707077980041504,240.0
2.712233066558838,250.0
2.7170541286468506,236.0
2.7217202186584473,251.0
2.72635817527771,266.0
2.731201171875,220.0
2.7357430458068848,211.0
2.743408203125,246.0
2.748577117919922,265.0
2.7532742023468018,267.0
2.757944107055664,259.0
2.7624120712280273,254.0
2.7674851417541504,227.0
2.7734122276306152,264.0
2.7784762382507324,263.0
2.783632278442383,249.0
2.789405107498169,238.0
2.7940001487731934,242.0
2.801598072052002,244.0
2.8065030574798584,235.0
2.811169147491455,228.0
2.8196821212768555,222.0
2.824653148651123,224.0
2.8293161392211914,240.0
2.8339951038360596,240.0
2.8391051292419434,255.0
2.8434932231903076,257.0
2.8488352298736572,234.0
2.8533692359924316,234.0
2.8585920333862305,245.0
2.866117238998413,252.0
2.8720030784606934,256.0
2.8764140605926514,240.0
2.8814992904663086,242.0
2.885890245437622,230.0
2.89375901222229,238.0
2.8988680839538574,237.0
2.9034440517425537,239.0
2.908090114593506,229.0
2.915424108505249,235.0
2.920837163925171,227.0
2.9259390830993652,251.0
2.9312121868133545,252.0
2.9357500076293945,242.0
2.943742036819458,244.0
2.949059247970581,265.0
2.9538722038269043,260.0
2.95867919921875,233.0
2.963304042816162,247.0
2.967757225036621,242.0
2.973257064819336,238.0
2.977839231491089,237.0
2.9829912185668945,229.0
2.9874792098999023,234.0
2.9921271800994873,228.0
2.9992592334747314,212.0
3.004364252090454,217.0
3.009557008743286,209.0
3.0142290592193604,229.0
3.0185952186584473,222.0
3.0238051414489746,234.0
3.0283141136169434,244.0
3.0334200859069824,209.0
3.0405282974243164,194.0
3.045772075653076,216.0
3.050746202468872,224.0
3.0553512573242188,226.0
3.0596821308135986,216.0
3.065023183822632,200.0
3.069628953933716,218.0
3.0748019218444824,223.0
3.08221435546875,206.0
3.087343215942383,208.0
3.092442274093628,242.0
3.097125291824341,259.0
3.101572275161743,255.0
3.1064939498901367,257.0
3.110826015472412,262.0
3.118705987930298,274.0
3.1243860721588135,267.0
3.129122257232666,283.0
3.1339001655578613,278.0
3.1412270069122314,268.0
3.149022102355957,256.0
3.154165029525757,247.0
3.15887713432312,232.0
3.1661581993103027,229.0
3.1737701892852783,241.0
3.1789610385894775,252.0
3.183584213256836,241.0
3.1882503032684326,243.0
3.192681074142456,247.0
3.1975879669189453,234.0
3.202019214630127,250.0
3.2075819969177246,252.0
3.212070941925049,252.0
3.217132091522217,256.0
3.221740245819092,257.0
3.226086139678955,240.0
3.2310972213745117,233.0
3.2354302406311035,227.0
3.240858316421509,233.0
3.245302200317383,235.0
3.250365972518921,236.0
3.2574150562286377,229.0
3.262768268585205,220.0
3.2679851055145264,229.0
3.273030996322632,248.0
3.2773172855377197,257.0
3.2852060794830322,250.0
3.2903382778167725,249.0
3.2949912548065186,261.0
3.299720048904419,256.0
3.3047871589660645,252.0
3.3095860481262207,254.0
3.3145370483398438,244.0
3.319491147994995,234.0
3.3271961212158203,226.0
3.332456111907959,240.0
3.3370931148529053,257.0
3.341747999191284,234.0
3.348621129989624,208.0
3.3541221618652344,221.0
3.3592519760131836,246.0
3.364121198654175,240.0
3.368475914001465,254.0
3.373077154159546,256.0
3.3773930072784424,267.0
3.384618043899536,222.0
3.3894050121307373,233.0
3.3937571048736572,253.0
3.3983640670776367,237.0
3.4028820991516113,230.0
3.4099531173706055,233.0
3.4146881103515625,231.0
3.4189913272857666,214.0
3.426112174987793,232.0
3.4311020374298096,238.0
3.4355499744415283,232.0
3.440211057662964,237.0
3.444699287414551,242.0
3.4514591693878174,241.0
3.4562199115753174,244.0
3.4605531692504883,243.0
3.4651572704315186,262.0
3.4696199893951416,252.0
3.476400136947632,249.0
3.481123208999634,256.0
3.4854180812835693,245.0
3.4900870323181152,233.0
3.494713306427002,216.0
3.5018391609191895,235.0
3.506757974624634,236.0
3.5114850997924805,227.0
3.5162010192871094,220.0
3.520836114883423,219.0
3.525440216064453,234.0
3.5322201251983643,234.0
3.5373692512512207,244.0
3.5421090126037598,248.0
3.5469210147857666,251.0
3.5513741970062256,268.0
3.5561020374298096,259.0
3.560474157333374,228.0
3.5652029514312744,228.0
3.569791078567505,216.0
3.5770812034606934,221.0
3.5820093154907227,223.0
3.586533308029175,211.0
3.593488931655884,199.0
3.5982251167297363,212.0
3.602764129638672,210.0
3.609520196914673,211.0
3.614760160446167,224.0
3.6192071437835693,251.0
3.626326084136963,253.0
3.631063222885132,252.0
3.6353232860565186,267.0
3.6398820877075195,236.0
3.6441521644592285,266.0
3.651189088821411,269.0
3.655907154083252,261.0
3.6601521968841553,255.0
3.6646981239318848,256.0
3.668931245803833,228.0
3.673521041870117,249.0
3.677985191345215,254.0
3.6847891807556152,250.0
3.6894540786743164,250.0
3.6937239170074463,259.0
3.6984221935272217,260.0
3.7030060291290283,256.0
3.7075860500335693,264.0
3.7121150493621826,261.0
3.7167041301727295,240.0
3.723304033279419,262.0
3.7284440994262695,268.0
3.733042001724243,272.0
3.7396979331970215,252.0
3.7448079586029053,246.0
3.7516870498657227,240.0
3.7565231323242188,232.0
3.7607650756835938,232.0
3.7678170204162598,230.0
3.7724881172180176,223.0
3.7767739295959473,218.0
3.7812952995300293,228.0
3.7855560779571533,233.0
3.790076971054077,236.0
3.79447603225708,240.0
3.801197052001953,226.0
3.805917978286743,227.0
3.810105085372925,246.0
3.8146121501922607,262.0
3.8187882900238037,255.0
3.8233301639556885,214.0
3.8275411128997803,235.0
3.834568977355957,241.0
3.839287042617798,247.0
3.8434760570526123,236.0
3.8480069637298584,233.0
3.8521881103515625,223.0
3.8567490577697754,217.0
3.861140012741089,228.0
3.865579128265381,243.0
3.8699710369110107,247.0
3.874567985534668,232.0
3.87912917137146,224.0
3.8836910724639893,213.0
3.8884291648864746,249.0
3.8928301334381104,240.0
3.8975601196289062,211.0
3.9019200801849365,210.0
3.9066200256347656,232.0
3.911212205886841,222.0
3.9158191680908203,225.0
3.920354127883911,232.0
3.92492413520813,234.0
3.9315831661224365,242.0
3.9366981983184814,236.0
3.941394090652466,256.0
3.948306083679199,261.0
3.9534051418304443,269.0
3.9582631587982178,254.0
3.964914083480835,262.0
3.9699041843414307,264.0
3.974398136138916,281.0
3.9787793159484863,276.0
3.983243227005005,264.0
3.9898409843444824,255.0
3.994915246963501,264.0
4.001835107803345,260.0
4.006504058837891,252.0
4.0107421875,253.0
4.017904996871948,246.0
4.022839069366455,248.0
4.027240037918091,257.0
4.032195091247559,261.0
4.037129163742065,249.0
4.042807102203369,275.0
4.0485429763793945,266.0
4.053648233413696,270.0
4.058727979660034,280.0
4.066163063049316,284.0
4.072084188461304,282.0
4.076668977737427,274.0
4.081584930419922,265.0
4.086354970932007,261.0
4.091074228286743,234.0
4.095714092254639,261.0
4.100325345993042,268.0
4.105132102966309,263.0
4.109755277633667,249.0
4.114765167236328,269.0
4.119189023971558,266.0
4.1263182163238525,254.0
4.1311891078948975,261.0
4.1356542110443115,260.0
4.142789125442505,245.0
4.147667169570923,253.0
4.152133226394653,285.0
4.156848907470703,263.0
4.161502122879028,232.0
4.165940999984741,237.0
4.170342206954956,252.0
4.174750089645386,245.0
4.179152965545654,249.0
4.183585166931152,230.0
4.190070152282715,251.0
4.195354223251343,248.0
4.199930191040039,235.0
4.206583261489868,244.0
4.21163010597229,282.0
4.216156005859375,278.0
4.220614910125732,278.0
4.22514009475708,277.0
4.23164701461792,298.0
4.2367260456085205,291.0
4.241210222244263,289.0
4.245682001113892,275.0
4.250195026397705,277.0
4.256693124771118,266.0
4.261784076690674,268.0
4.2664783000946045,261.0
4.273297071456909,270.0
4.278412103652954,254.0
4.283128261566162,273.0
4.289911270141602,259.0
4.29514217376709,258.0
4.299782037734985,256.0
4.306581020355225,263.0
4.3118250370025635,245.0
4.316518306732178,248.0
4.323216915130615,259.0
4.328509092330933,254.0
4.333187103271484,224.0
4.3399529457092285,231.0
4.34532904624939,235.0
4.350295066833496,221.0
4.357149124145508,229.0
4.362367153167725,240.0
4.3668482303619385,248.0
4.3733971118927,220.0
4.378411054611206,264.0
4.382828235626221,254.0
4.387267112731934,264.0
4.3918023109436035,264.0
4.398358106613159,271.0
4.403390169143677,269.0
4.40790319442749,274.0
4.412323236465454,279.0
4.4168760776519775,268.0
4.423346996307373,276.0
4.428336143493652,281.0
4.435152292251587,254.0
4.439870119094849,236.0
4.4441611766815186,266.0
4.4513161182403564,268.0
4.456014156341553,267.0
4.460291147232056,273.0
4.465014219284058,279.0
4.469698190689087,280.0
4.476891279220581,264.0
4.48176121711731,275.0
4.486410140991211,280.0
4.491021156311035,295.0
4.495659112930298,280.0
4.500348091125488,275.0
4.507120132446289,267.0
4.512314319610596,262.0
4.517022132873535,231.0
4.52374005317688,240.0
4.5290491580963135,242.0
4.53364109992981,265.0
4.540456056594849,262.0
4.545569181442261,255.0
4.550422191619873,253.0
4.557177305221558,244.0
4.562319278717041,280.0
4.567056894302368,279.0
4.571908235549927,281.0
4.576216220855713,271.0
4.580784320831299,284.0
4.585008144378662,275.0
4.589553117752075,263.0
4.593745946884155,270.0
4.5982890129089355,263.0
4.602525949478149,261.0
4.609523057937622,255.0
4.614441156387329,261.0
4.618884325027466,260.0
4.623843193054199,252.0
4.628572940826416,236.0
4.633396148681641,265.0
4.638537168502808,263.0
4.64288592338562,270.0
4.647473096847534,271.0
4.651781320571899,262.0
4.656336307525635,255.0
4.660732984542847,264.0
4.668158054351807,273.0
4.6731390953063965,266.0
4.677788972854614,227.0
4.684994220733643,228.0
4.690176010131836,231.0
4.694875955581665,239.0
4.702062129974365,237.0
4.706943035125732,230.0
4.711637020111084,272.0
4.716353178024292,279.0
4.723051071166992,222.0
4.728201150894165,241.0
4.735314130783081,273.0
4.74022102355957,286.0
4.744903087615967,282.0
4.749577045440674,265.0
4.754152059555054,290.0
4.7588770389556885,279.0
4.7634570598602295,287.0
4.767801284790039,275.0
4.772356271743774,243.0
4.77664589881897,269.0
4.781203985214233,272.0
4.785518169403076,269.0
4.790049076080322,266.0
4.794522285461426,253.0
4.801490068435669,265.0
4.806228160858154,269.0
4.81055212020874,271.0
4.815075159072876,279.0
4.819557189941406,287.0
4.826332092285156,284.0
4.831042051315308,270.0
4.835294008255005,266.0
4.840001106262207,293.0
4.844447135925293,291.0
4.848858118057251,267.0
4.853257179260254,264.0
4.85758113861084,272.0
4.862112045288086,272.0
4.8667683601379395,270.0
4.873605966567993,273.0
4.878881216049194,272.0
4.883517026901245,279.0
4.890377998352051,280.0
4.895541191101074,282.0
4.900402069091797,281.0
4.907149076461792,281.0
4.912262916564941,291.0
4.917150020599365,293.0
4.923943042755127,275.0
4.929040908813477,265.0
4.9337239265441895,249.0
4.940503120422363,251.0
4.945703029632568,237.0
4.950692176818848,254.0
4.957642078399658,261.0
4.964922189712524,248.0
4.969959020614624,241.0
4.9744532108306885,245.0
4.97883415222168,259.0
4.983285188674927,271.0
4.9898152351379395,273.0
4.99479603767395,283.0
4.99928617477417,281.0
5.003616094589233,284.0
5.008056163787842,292.0
5.012378215789795,281.0
5.016798973083496,278.0
5.023445129394531,268.0
5.028454303741455,260.0
5.032864093780518,247.0
5.03724217414856,235.0
5.041677236557007,233.0
5.04821515083313,251.0
5.053211212158203,234.0
5.057654142379761,236.0
5.0620341300964355,273.0
5.066705942153931,281.0
5.072116136550903,218.0
5.076478004455566,249.0
5.081785202026367,257.0
5.086341142654419,279.0
5.0939671993255615,295.0
5.10205602645874,297.0
5.107202053070068,284.0
5.111830234527588,277.0
5.116518259048462,280.0
5.123861074447632,283.0
5.129043102264404,284.0
5.13423228263855,290.0
5.139183282852173,281.0
5.143649101257324,283.0
5.149193048477173,295.0
5.153917074203491,305.0
5.158948183059692,304.0
5.163491249084473,302.0
5.167895078659058,296.0
5.172827959060669,298.0
5.177087068557739,304.0
5.182501316070557,308.0
5.186895132064819,303.0
5.191918134689331,281.0
5.19894814491272,281.0
5.204184293746948,278.0
5.2091662883758545,251.0
5.2162182331085205,290.0
5.223800182342529,290.0
5.229076147079468,276.0
5.233566045761108,283.0
5.238054275512695,282.0
5.242351293563843,275.0
5.246907949447632,283.0
5.251203298568726,279.0
5.25624418258667,287.0
5.260447025299072,283.0
5.265887022018433,285.0
5.270320892333984,286.0
5.275355339050293,273.0
5.282661199569702,254.0
5.2904441356658936,238.0
5.2955992221832275,284.0
5.300189018249512,269.0
5.304906129837036,261.0
5.309430122375488,256.0
5.314160346984863,241.0
5.318626165390015,276.0
5.323908090591431,271.0
5.328459024429321,282.0
5.333431243896484,282.0
5.340382099151611,296.0
5.345563173294067,268.0
5.350470066070557,246.0
5.357494115829468,291.0
5.362579107284546,271.0
5.367430925369263,285.0
5.371991157531738,267.0
5.376301288604736,272.0
5.380853176116943,261.0
5.385146141052246,265.0
5.390252113342285,274.0
5.394672155380249,269.0
5.402052164077759,257.0
5.406834125518799,271.0
5.4113030433654785,279.0
5.415803909301758,288.0
5.420170068740845,298.0
5.424580097198486,296.0
5.428969144821167,279.0
5.433676242828369,280.0
5.440454959869385,305.0
5.445296287536621,276.0
5.449888229370117,293.0
5.457081317901611,270.0
5.462108135223389,283.0
5.466900110244751,276.0
5.473977088928223,282.0
5.479176044464111,295.0
5.484293222427368,276.0
5.489451169967651,280.0
5.493898153305054,292.0
5.4989142417907715,289.0
5.503526926040649,266.0
5.508224010467529,297.0
5.51507306098938,285.0
5.520311117172241,290.0
5.525170087814331,288.0
5.530213117599487,306.0
5.534971237182617,285.0
5.5398101806640625,273.0
5.544546127319336,276.0
5.5517730712890625,284.0
5.55668306350708,277.0
5.561286926269531,273.0
5.56578516960144,268.0
5.57017707824707,262.0
5.574602127075195,272.0
5.578973054885864,272.0
5.583492279052734,282.0
5.590030193328857,287.0
5.59489893913269,285.0
5.599301338195801,264.0
5.603658199310303,254.0
5.608048915863037,272.0
5.612401008605957,271.0
5.617246150970459,243.0
5.622068166732788,241.0
5.6263649463653564,254.0
5.631352186203003,252.0
5.635566234588623,198.0
5.640197277069092,225.0
5.644603252410889,231.0
5.651654005050659,240.0
5.6564130783081055,250.0
5.660604953765869,262.0
5.665616989135742,276.0
5.670175075531006,272.0
5.674957275390625,272.0
5.682260036468506,277.0
5.687700033187866,295.0
5.69267725944519,304.0
5.697662115097046,309.0
5.702179193496704,290.0
5.7071990966796875,285.0
5.711827039718628,285.0
5.716658115386963,285.0
5.723860025405884,277.0
5.729122161865234,269.0
5.734050273895264,264.0
5.738789319992065,270.0
5.7432801723480225,271.0
5.7480552196502686,267.0
5.752507925033569,283.0
5.760149002075195,304.0
5.765213966369629,298.0
5.769668102264404,274.0
5.776992082595825,265.0
5.782015085220337,308.0
5.7868921756744385,300.0
5.791384220123291,288.0
5.796086072921753,281.0
5.800587177276611,295.0
5.805275917053223,298.0
5.809615135192871,298.0
5.8143041133880615,287.0
5.818592071533203,274.0
5.823610305786133,286.0
5.828110218048096,282.0
5.835468053817749,280.0
5.8409459590911865,255.0
5.845360279083252,277.0
5.849890232086182,286.0
5.857068061828613,288.0
5.862122058868408,270.0
5.867086172103882,284.0
5.871822118759155,255.0
5.8763511180877686,238.0
5.881366014480591,272.0
5.886102199554443,268.0
5.8936662673950195,282.0
5.8993000984191895,278.0
5.9038732051849365,276.0
5.908587217330933,265.0
5.9132843017578125,270.0
5.917833089828491,278.0
5.922986030578613,256.0
5.927411079406738,261.0
5.93513298034668,280.0
5.940514087677002,305.0
5.9451940059661865,287.0
5.949812173843384,284.0
5.956985235214233,275.0
5.962193012237549,282.0
5.9672040939331055,271.0
5.974380254745483,270.0
5.982053279876709,282.0
5.987357139587402,276.0
5.991933107376099,278.0
5.9964821338653564,261.0
6.000868320465088,258.0
6.005767107009888,308.0
6.010111093521118,289.0
6.015482187271118,278.0
6.019901990890503,289.0
6.02740216255188,303.0
6.035023212432861,302.0
6.040005922317505,282.0
6.044466972351074,302.0
6.051387310028076,292.0
6.058316230773926,291.0
6.0660459995269775,281.0
6.0713982582092285,274.0
6.075745105743408,279.0
6.080365180969238,282.0
6.084856271743774,283.0
6.0899012088775635,275.0
6.094559192657471,259.0
6.102107286453247,294.0
6.107228994369507,291.0
6.1120851039886475,292.0
6.117040157318115,295.0
6.1242711544036865,302.0
6.1321070194244385,297.0
6.137214183807373,301.0
6.1418821811676025,303.0
6.1492760181427,262.0
6.157092094421387,285.0
6.162360191345215,279.0
6.166978120803833,287.0
6.171588182449341,282.0
6.175951242446899,257.0
6.180731296539307,285.0
6.185068130493164,259.0
6.190096139907837,277.0
6.194603204727173,289.0
6.202085256576538,300.0
6.207340240478516,278.0
6.211792230606079,303.0
6.216284990310669,309.0
6.220720291137695,304.0
6.225292205810547,311.0
6.232337951660156,296.0
6.237336158752441,292.0
6.24211311340332,281.0
6.249269008636475,261.0
6.254390239715576,275.0
6.259610176086426,273.0
6.264305114746094,284.0
6.268871068954468,273.0
6.274112224578857,260.0
6.278694152832031,274.0
6.283865213394165,286.0
6.288748264312744,280.0
6.293307304382324,277.0
6.298609972000122,291.0
6.304490089416504,291.0
6.309997081756592,278.0
6.316509008407593,281.0
6.3224852085113525,287.0
6.3274712562561035,269.0
6.33292818069458,280.0
6.340580224990845,280.0
6.346253156661987,255.0
6.351754188537598,288.0
6.357073068618774,284.0
6.361648321151733,277.0
6.366285085678101,293.0
6.371064186096191,307.0
6.375758171081543,299.0
6.3809192180633545,299.0
6.3853230476379395,310.0
6.390573263168335,314.0
6.395112037658691,305.0
6.4032111167907715,309.0
6.407832145690918,300.0
6.412286043167114,296.0
6.416867256164551,288.0
6.423993110656738,287.0
6.429009914398193,290.0
6.4340500831604,285.0
6.4412970542907715,276.0
6.448949098587036,274.0
6.454417943954468,270.0
6.459022283554077,281.0
6.463854074478149,289.0
6.468178033828735,282.0
6.47320294380188,271.0
6.477758169174194,276.0
6.485387086868286,271.0
6.490445137023926,253.0
6.494951009750366,274.0
6.499697923660278,277.0
6.50716495513916,258.0
6.512659072875977,257.0
6.517965078353882,242.0
6.523133993148804,240.0
6.52780818939209,243.0
6.532560348510742,258.0
6.537548065185547,264.0
6.54233717918396,271.0
6.547575235366821,272.0
6.55210018157959,272.0
6.5573132038116455,276.0
6.561822175979614,296.0
6.566889047622681,282.0
6.574065923690796,277.0
6.579174995422363,293.0
6.584190130233765,299.0
6.588762283325195,291.0
6.593133211135864,273.0
6.598001003265381,271.0
6.602355003356934,261.0
6.610098123550415,292.0
6.615571022033691,280.0
6.620512008666992,280.0
6.625408172607422,278.0
6.6330790519714355,289.0
6.639116048812866,296.0
6.643938064575195,296.0
6.649148941040039,291.0
6.653779983520508,310.0
6.6591832637786865,292.0
6.663983106613159,292.0
6.6684722900390625,304.0
6.6739342212677,294.0
6.678566932678223,274.0
6.6833579540252686,291.0
6.690539121627808,279.0
6.69597601890564,284.0
6.701205015182495,282.0
6.706208229064941,288.0
6.711344957351685,296.0
6.716378211975098,287.0
6.7239580154418945,308.0
6.732832193374634,313.0
6.741417169570923,304.0
6.747969150543213,307.0
6.752545118331909,308.0
6.761221885681152,307.0
6.769052028656006,311.0
6.777190923690796,312.0
6.782463073730469,305.0
6.787235260009766,290.0
6.792336940765381,291.0
6.798001050949097,282.0
6.803102016448975,277.0
6.809159994125366,276.0
6.814202308654785,282.0
6.818868160247803,275.0
6.8236119747161865,267.0
6.828747034072876,258.0
6.834254264831543,290.0
6.839807033538818,307.0
6.844828128814697,283.0
6.84952712059021,277.0
6.854467153549194,284.0
6.859167098999023,289.0
6.864465951919556,285.0
6.8689491748809814,279.0
6.876960039138794,281.0
6.881947994232178,276.0
6.886979103088379,265.0
6.891973972320557,266.0
6.898884296417236,262.0
6.905045032501221,264.0
6.910505056381226,235.0
6.915724039077759,262.0
6.923823118209839,256.0
6.928932189941406,276.0
6.934200286865234,311.0
6.93890118598938,297.0
6.943921089172363,270.0
6.948825120925903,265.0
6.953902244567871,297.0
6.9594480991363525,289.0
6.964105129241943,275.0
6.969098091125488,261.0
6.9766011238098145,281.0
6.981560230255127,283.0
6.986459970474243,282.0
6.994524955749512,289.0
7.002146244049072,245.0
7.007235288619995,259.0
7.0121331214904785,278.0
7.016977071762085,283.0
7.021695137023926,281.0
7.026770114898682,276.0
7.0316009521484375,280.0
7.036564111709595,284.0
7.041675090789795,295.0
7.0488340854644775,316.0
7.0550501346588135,265.0
7.060028076171875,261.0
7.0662522315979,255.0
7.072380065917969,282.0
7.078470945358276,281.0
7.083451271057129,291.0
7.088757038116455,295.0
7.09367036819458,291.0
7.098464012145996,297.0
7.10357403755188,307.0
7.108346223831177,309.0
7.1132590770721436,291.0
7.117932081222534,311.0
7.123023271560669,308.0
7.127535104751587,309.0
7.1353302001953125,301.0
7.140331029891968,320.0
7.14564323425293,301.0
7.150777101516724,297.0
7.156538248062134,295.0
7.161776304244995,281.0
7.167362213134766,287.0
7.172466993331909,285.0
7.177183151245117,273.0
7.1818482875823975,257.0
7.18696403503418,287.0
7.191936016082764,305.0
7.1965651512146,299.0
7.201455116271973,286.0
7.2062013149261475,278.0
7.211227178573608,278.0
7.218867063522339,293.0
7.223843097686768,297.0
7.228547096252441,282.0
7.233558177947998,269.0
7.238256931304932,295.0
7.243237257003784,277.0
7.248000144958496,262.0
7.252763271331787,276.0
7.260265111923218,290.0
7.265269041061401,275.0
7.270472049713135,272.0
7.27518105506897,272.0
7.2799482345581055,267.0
7.284910202026367,274.0
7.289608955383301,289.0
7.294640302658081,288.0
7.301761150360107,287.0
7.3065102100372314,286.0
7.311409950256348,292.0
7.316025257110596,277.0
7.320646047592163,261.0
7.3257832527160645,271.0
7.330716133117676,287.0
7.335682153701782,292.0
7.3433332443237305,262.0
7.348203182220459,264.0
7.3534862995147705,289.0
7.358501195907593,299.0
7.365259170532227,314.0
7.370867967605591,307.0
7.375859975814819,313.0
7.3805201053619385,318.0
7.385392904281616,303.0
7.389962196350098,284.0
7.394885301589966,316.0
7.399352073669434,316.0
7.4037792682647705,290.0
7.408292293548584,267.0
7.415023326873779,282.0
7.420405149459839,288.0
7.424906015396118,268.0
7.431454181671143,293.0
7.436408281326294,280.0
7.443158149719238,267.0
7.447968006134033,282.0
7.452905178070068,294.0
7.457832098007202,296.0
7.4623191356658936,300.0
7.467365264892578,284.0
7.471984148025513,282.0
7.476898193359375,290.0
7.48196005821228,298.0
7.486637115478516,295.0
7.4915971755981445,264.0
7.498355150222778,276.0
7.504102945327759,264.0
7.508702993392944,254.0
7.5134851932525635,258.0
7.518548011779785,269.0
7.523360013961792,285.0
7.5285351276397705,242.0
7.533440113067627,270.0
7.538514137268066,299.0
7.543208122253418,289.0
7.548048257827759,268.0
7.5528600215911865,284.0
7.560256004333496,277.0
7.5651819705963135,290.0
7.569746017456055,285.0
7.574471950531006,301.0
7.579463005065918,302.0
7.5844292640686035,285.0
7.589538097381592,258.0
7.594584226608276,281.0
7.602510213851929,288.0
7.607907295227051,291.0
7.612504243850708,274.0
7.61783504486084,282.0
7.622754096984863,293.0
7.627440929412842,301.0
7.635098218917847,292.0
7.640143156051636,294.0
7.6447460651397705,295.0
7.652059316635132,266.0
7.657050132751465,295.0
7.661645174026489,291.0
7.66631007194519,293.0
7.670737028121948,278.0
7.675268173217773,263.0
7.6799070835113525,274.0
7.684678077697754,284.0
7.6894800662994385,282.0
7.694075345993042,287.0
7.7013421058654785,280.0
7.706735134124756,292.0
7.711546182632446,300.0
7.716410160064697,311.0
7.722059011459351,298.0
7.727050065994263,304.0
7.732145071029663,298.0
7.736838102340698,298.0
7.7415430545806885,314.0
7.74895715713501,308.0
7.754197120666504,296.0
7.761873006820679,289.0
7.766726970672607,275.0
7.771826982498169,285.0
7.776364088058472,289.0
7.7815821170806885,295.0
7.786611080169678,261.0
7.791579246520996,294.0
7.798331260681152,300.0
7.803462982177734,298.0
7.808425188064575,300.0
7.81318998336792,300.0
7.818443059921265,301.0
7.82321310043335,300.0
7.828229904174805,302.0
7.833210229873657,297.0
7.83814811706543,269.0
7.842773199081421,274.0
7.84772515296936,275.0
7.852341175079346,288.0
7.859985113143921,266.0
7.864995241165161,273.0
7.869847059249878,269.0
7.874422073364258,264.0
7.878996133804321,262.0
7.883609294891357,269.0
7.8883562088012695,306.0
7.893095970153809,281.0
7.897948980331421,269.0
7.90273118019104,278.0
7.909879207611084,273.0
7.9147820472717285,304.0
7.91981315612793,307.0
7.924718141555786,289.0
7.931696176528931,279.0
7.937309980392456,287.0
7.942176103591919,289.0
7.946972131729126,275.0
7.951591968536377,279.0
7.956385135650635,284.0
7.96076226234436,281.0
7.968184232711792,288.0
7.97300910949707,289.0
7.977315187454224,294.0
7.984774112701416,290.0
7.989556074142456,299.0
7.993842124938965,302.0
7.998445272445679,295.0
8.002920150756836,284.0
8.009861946105957,285.0
8.014534950256348,269.0
8.018824100494385,261.0
8.023429155349731,281.0
8.027884244918823,292.0
8.032301187515259,284.0
8.036709308624268,288.0
8.04121208190918,249.0
8.045589208602905,267.0
8.049984216690063,290.0
8.056636095046997,300.0
8.061925172805786,298.0
8.066487073898315,304.0
8.07308316230774,290.0
8.078169107437134,289.0
8.082779169082642,306.0
8.087380170822144,294.0
8.091938257217407,288.0
8.09860610961914,262.0
8.103953123092651,262.0
8.10883116722107,266.0
8.114031314849854,278.0
8.118569135665894,280.0
8.123318195343018,275.0
8.127975940704346,263.0
8.13268518447876,259.0
8.137349128723145,283.0
8.142059087753296,293.0
8.148778200149536,297.0
8.154022216796875,300.0
8.158758163452148,304.0
8.165434122085571,307.0
8.170517206192017,306.0
8.174952983856201,307.0
8.181486129760742,297.0
8.186415195465088,287.0
8.190860033035278,297.0
8.195436239242554,296.0
8.200086116790771,286.0
8.206772089004517,282.0
8.211801290512085,281.0
8.216247081756592,264.0
8.220637083053589,248.0
8.225021123886108,268.0
8.231919288635254,269.0
8.237360954284668,307.0
8.241991996765137,281.0
8.246522188186646,256.0
8.25085711479187,276.0
8.25537896156311,287.0
8.259916067123413,266.0
8.264506340026855,273.0
8.268712043762207,270.0
8.273455142974854,273.0
8.278059005737305,278.0
8.285146236419678,279.0
8.292044162750244,260.0
8.29750108718872,263.0
8.3019700050354,277.0
8.306738138198853,298.0
8.311429977416992,303.0
8.318612098693848,303.0
8.32343316078186,302.0
8.32804822921753,310.0
8.335237979888916,307.0
8.340104103088379,315.0
8.344828128814697,300.0
8.352097034454346,294.0
8.356971025466919,290.0
8.361473083496094,284.0
8.368412971496582,295.0
8.373120069503784,280.0
8.377459049224854,283.0
8.384562969207764,296.0
8.389281034469604,279.0
8.393625259399414,276.0
8.398167133331299,291.0
8.402480125427246,297.0
8.40962529182434,299.0
8.414338111877441,299.0
8.41864824295044,282.0
8.423181056976318,300.0
8.427733182907104,285.0
8.434664964675903,304.0
8.43946123123169,298.0
8.443824291229248,296.0
8.44841718673706,283.0
8.452872037887573,270.0
8.459891080856323,247.0
8.46459698677063,275.0
8.46894907951355,280.0
8.476239204406738,293.0
8.481138944625854,318.0
8.48559021949768,289.0
8.490275144577026,278.0
8.494862079620361,288.0
8.501826047897339,296.0
8.506693124771118,303.0
8.511239051818848,298.0
8.518235206604004,319.0
8.523098230361938,303.0
8.527510166168213,290.0
8.53465723991394,285.0
8.539536237716675,282.0
8.544035196304321,283.0
8.55147409439087,268.0
8.556360960006714,295.0
8.561064958572388,283.0
8.568061113357544,286.0
8.572752952575684,286.0
8.577141046524048,311.0
8.58168911933899,316.0
8.586233139038086,316.0
8.59328007698059,286.0
8.597980976104736,304.0
8.602315187454224,305.0
8.609952211380005,325.0
8.615446090698242,311.0
8.620532989501953,301.0
8.625444173812866,289.0
8.630172967910767,289.0
8.634518146514893,295.0
8.639181137084961,277.0
8.64348316192627,272.0
8.648055076599121,275.0
8.65232515335083,284.0
8.65954303741455,278.0
8.664300203323364,293.0
8.668641090393066,292.0
8.67320704460144,273.0
8.677877187728882,281.0
8.685113191604614,275.0
8.690063238143921,294.0
8.694715976715088,299.0
8.701847076416016,281.0
8.705084085464478,244.0
8.709943056106567,273.0
8.714665174484253,279.0
8.71947717666626,274.0
8.726706981658936,279.0
8.731608152389526,280.0
8.736252069473267,270.0
8.74088716506958,284.0
8.745753288269043,282.0
8.75058627128601,290.0
8.757737159729004,301.0
8.763160228729248,303.0
8.767451286315918,299.0
8.771995306015015,303.0
8.776339054107666,299.0
8.781007289886475,304.0
8.78541612625122,293.0
8.790041208267212,289.0
8.79445219039917,296.0
8.801216125488281,303.0
8.805936336517334,277.0
8.810340166091919,286.0
8.81489634513855,287.0
8.819146156311035,288.0
8.8264000415802,293.0
8.831168174743652,304.0
8.835369110107422,301.0
8.83990216255188,306.0
8.84457516670227,294.0
8.852018117904663,300.0
8.857003211975098,302.0
8.861823081970215,308.0
8.866398096084595,324.0
8.873164176940918,300.0
8.878427267074585,277.0
8.88302493095398,292.0
8.890052318572998,286.0
8.89525318145752,298.0
8.900187969207764,306.0
8.906984090805054,303.0
8.91218614578247,307.0
8.91686725616455,317.0
8.9236900806427,311.0
8.928828001022339,317.0
8.933841943740845,322.0
8.938600063323975,332.0
8.943136215209961,321.0
8.94790005683899,323.0
8.952329158782959,319.0
8.959614992141724,302.0
8.96438717842102,298.0
8.968748092651367,297.0
8.973335266113281,298.0
8.977785110473633,306.0
8.984730243682861,295.0
8.989383935928345,280.0
8.993652105331421,259.0
8.998256921768188,312.0
9.00248908996582,319.0
9.009658336639404,310.0
9.014338254928589,321.0
9.01864504814148,314.0
9.023211002349854,306.0
9.027468204498291,323.0
9.034534931182861,310.0
9.039316177368164,306.0
9.043664932250977,302.0
9.04823923110962,302.0
9.052502155303955,297.0
9.059564113616943,291.0
9.064270257949829,275.0
9.068593978881836,302.0
9.073134183883667,270.0
9.07777214050293,269.0
9.085038185119629,286.0
9.089919090270996,288.0
9.094577074050903,269.0
9.101775169372559,302.0
9.106917142868042,312.0
9.111590147018433,282.0
9.116313219070435,271.0
9.123130321502686,314.0
9.12837815284729,313.0
9.13305926322937,271.0
9.13999605178833,281.0
9.145230293273926,304.0
9.150201320648193,314.0
9.15709114074707,303.0
9.162134170532227,309.0
9.166916131973267,310.0
9.173687219619751,321.0
9.1788010597229,317.0
9.18356728553772,327.0
9.190255165100098,307.0
9.195351123809814,320.0
9.200111150741577,317.0
9.206685066223145,334.0
9.21195912361145,334.0
9.216736078262329,324.0
9.223472356796265,339.0
9.228450059890747,318.0
9.232943296432495,316.0
9.237362146377563,320.0
9.244807958602905,299.0
9.249636173248291,306.0
9.256897211074829,305.0
9.262018203735352,303.0
9.266577005386353,297.0
9.273580074310303,286.0
9.27873420715332,309.0
9.283727169036865,300.0
9.28879427909851,292.0
9.293480157852173,308.0
9.298286199569702,298.0
9.303019046783447,307.0
9.307754039764404,306.0
9.31236720085144,289.0
9.316943168640137,294.0
9.321627140045166,291.0
9.326181173324585,311.0
9.330970287322998,309.0
9.335484027862549,302.0
9.340293169021606,286.0
9.345057249069214,311.0
9.349760055541992,322.0
9.35667610168457,327.0
9.361898183822632,321.0
9.366451025009155,319.0
9.373221158981323,321.0
9.378254175186157,322.0
9.38312315940857,321.0
9.389861345291138,320.0
9.394928216934204,300.0
9.399635076522827,269.0
9.404005289077759,294.0
9.408518075942993,283.0
9.415349006652832,293.0
9.42041301727295,269.0
9.424877166748047,277.0
9.431639194488525,260.0
9.436726093292236,284.0
9.441485166549683,292.0
9.448201179504395,303.0
9.453424215316772,314.0
9.460626125335693,301.0
9.46772813796997,298.0
9.472458124160767,291.0
9.476771116256714,319.0
9.481328248977661,311.0
9.485583305358887,303.0
9.490281105041504,295.0
9.494899034500122,322.0
9.501824140548706,286.0
9.506614208221436,293.0
9.51122522354126,315.0
9.51829218864441,303.0
9.523404121398926,314.0
9.52802324295044,323.0
9.535227298736572,319.0
9.540287017822266,324.0
9.54491925239563,323.0
9.549634218215942,331.0
9.554220199584961,317.0
9.558853149414062,323.0
9.563452959060669,322.0
9.567833185195923,321.0
9.572412967681885,281.0
9.576761245727539,275.0
9.581322193145752,300.0
9.585582256317139,302.0
9.590147256851196,294.0
9.594648122787476,297.0
9.60181212425232,295.0
9.606471061706543,303.0
9.610746145248413,320.0
9.617875099182129,324.0
9.623153924942017,312.0
9.627470254898071,309.0
9.63497805595398,322.0
9.639986038208008,319.0
9.644449234008789,328.0
9.651677131652832,327.0
9.656316995620728,319.0
9.660580158233643,316.0
9.665138006210327,320.0
9.669636249542236,303.0
9.676679134368896,294.0
9.681420087814331,314.0
9.685765266418457,305.0
9.693218231201172,291.0
9.698422193527222,275.0
9.703107118606567,321.0
9.707833290100098,339.0
9.712439060211182,300.0
9.717106103897095,312.0
9.72388219833374,308.0
9.729079246520996,314.0
9.733731269836426,330.0
9.740572929382324,317.0
9.745705127716064,298.0
9.750498056411743,304.0
9.757238149642944,303.0
9.762288331985474,299.0
9.767024278640747,293.0
9.771632194519043,297.0
9.776116132736206,261.0
9.78084421157837,268.0
9.78515625,313.0
9.790066957473755,316.0
9.794902086257935,273.0
9.799605131149292,285.0
9.80445122718811,338.0
9.80867314338684,305.0
9.813211917877197,293.0
9.817959070205688,297.0
9.822843313217163,298.0
9.827969074249268,299.0
9.832874059677124,301.0
9.84066104888916,303.0
9.845839262008667,293.0
9.851094245910645,311.0
9.858323097229004,290.0
9.864122152328491,253.0
9.868494272232056,297.0
9.873536109924316,317.0
9.878014087677002,323.0
9.882848024368286,327.0
9.8872971534729,327.0
9.892011165618896,303.0
9.897400140762329,327.0
9.90208125114441,342.0
9.907629251480103,339.0
9.91260313987732,329.0
9.917736053466797,320.0
9.92250919342041,312.0
9.927002191543579,309.0
9.932462215423584,320.0
9.93708610534668,317.0
9.942143201828003,315.0
9.949624061584473,317.0
9.957222938537598,322.0
9.962254285812378,318.0
9.966854095458984,326.0
9.973855018615723,337.0
9.979092121124268,333.0
9.983869075775146,340.0
9.988432168960571,328.0
9.99277114868164,333.0
9.997451066970825,341.0
10.001748085021973,329.0
10.00672698020935,319.0
10.01121997833252,312.0
10.018584251403809,320.0
10.023750066757202,323.0
10.028273105621338,305.0
10.032803297042847,309.0
10.037163019180298,312.0
10.04173231124878,329.0
10.048781156539917,305.0
10.053843975067139,327.0
10.058629989624023,318.0
10.065686225891113,335.0
10.070687055587769,330.0
10.075376987457275,313.0
10.079905033111572,342.0
10.084281206130981,329.0
10.089138984680176,309.0
10.093645095825195,313.0
10.099071025848389,323.0
10.103718280792236,318.0
10.108760118484497,315.0
10.114126205444336,329.0
10.118737936019897,317.0
10.124129056930542,326.0
10.128770112991333,334.0
10.133881092071533,308.0
10.13879108428955,326.0
10.143352270126343,335.0
10.148585081100464,341.0
10.153274297714233,305.0
10.158353090286255,332.0
10.165488958358765,339.0
10.170611143112183,332.0
10.175454139709473,299.0
10.180080890655518,319.0
10.184446096420288,314.0
10.189178228378296,317.0
10.19351315498352,314.0
10.198537111282349,327.0
10.203037977218628,318.0
10.210586309432983,329.0
10.215752124786377,332.0
10.220262289047241,336.0
10.224897146224976,348.0
10.231950283050537,342.0
10.237045049667358,329.0
10.241947174072266,310.0
10.249236106872559,346.0
10.256829023361206,343.0
10.26198410987854,337.0
10.266575336456299,321.0
10.27369499206543,319.0
10.278672933578491,327.0
10.284025192260742,320.0
10.29171109199524,315.0
