time,emg
0.012265205383300781,498.0
0.023400068283081055,504.0
0.028927087783813477,503.0
0.03436899185180664,508.0
0.040223121643066406,513.0
0.04759812355041504,529.0
0.05659890174865723,554.0
0.06517410278320312,557.0
0.0726010799407959,555.0
0.07997822761535645,545.0
0.08446502685546875,558.0
0.0885019302368164,533.0
0.0934441089630127,518.0
0.09779119491577148,503.0
0.10547113418579102,489.0
0.11015009880065918,493.0
0.11444807052612305,492.0
0.1218559741973877,483.0
0.1268310546875,462.0
0.13163208961486816,495.0
0.13919925689697266,512.0
0.1460120677947998,511.0
0.15212607383728027,513.0
0.15763115882873535,523.0
0.16184115409851074,520.0
0.16870808601379395,515.0
0.17425203323364258,522.0
0.17866110801696777,525.0
0.18532395362854004,520.0
0.19027304649353027,519.0
0.19483304023742676,517.0
0.1989130973815918,488.0
0.20349717140197754,511.0
0.2106010913848877,511.0
0.21566200256347656,507.0
0.22053909301757812,508.0
0.22479915618896484,510.0
0.22978615760803223,510.0
0.23446321487426758,508.0
0.2407231330871582,507.0
0.2458662986755371,506.0
0.2511160373687744,499.0
0.2556571960449219,497.0
0.260634183883667,495.0
0.2650570869445801,494.0
0.2723822593688965,496.0
0.27759718894958496,504.0
0.2821190357208252,506.0
0.2875518798828125,510.0
0.29254913330078125,517.0
0.2976691722869873,517.0
0.3057901859283447,516.0
0.31209421157836914,521.0
0.3199279308319092,511.0
0.32572007179260254,513.0
0.3301980495452881,507.0
0.3349301815032959,491.0
0.3408529758453369,515.0
0.3461480140686035,518.0
0.3514530658721924,530.0
0.35592222213745117,534.0
0.36387014389038086,525.0
0.36997509002685547,511.0
0.3754920959472656,535.0
0.3814718723297119,536.0
0.38649797439575195,531.0
0.3917350769042969,525.0
0.39696621894836426,524.0
0.4021742343902588,518.0
0.4080381393432617,520.0
0.4134702682495117,513.0
0.41932106018066406,514.0
0.4246702194213867,512.0
0.430757999420166,518.0
0.436873197555542,512.0
0.44203996658325195,517.0
0.4474611282348633,534.0
0.4528980255126953,532.0
0.46070408821105957,536.0
0.46904706954956055,549.0
0.47373318672180176,554.0
0.4817221164703369,560.0
0.48912715911865234,562.0
0.4969961643218994,557.0
0.5027110576629639,559.0
0.5066900253295898,556.0
0.5138711929321289,548.0
0.5182530879974365,542.0
0.5220839977264404,529.0
0.5261869430541992,522.0
0.5305452346801758,496.0
0.5350031852722168,512.0
0.5392711162567139,509.0
0.5467832088470459,498.0
0.5511441230773926,514.0
0.5549721717834473,514.0
0.5589051246643066,517.0
0.5627181529998779,513.0
0.5691409111022949,519.0
0.5741500854492188,513.0
0.5784361362457275,508.0
0.5857090950012207,513.0
0.5906579494476318,495.0
0.5945820808410645,518.0
0.5987341403961182,534.0
0.6029250621795654,540.0
0.606910228729248,545.0
0.6138300895690918,541.0
0.6186668872833252,534.0
0.6233091354370117,525.0
0.6304659843444824,521.0
0.6345300674438477,524.0
0.6383368968963623,526.0
0.6432909965515137,527.0
0.6472530364990234,523.0
0.6518571376800537,505.0
0.6557891368865967,501.0
0.6599862575531006,493.0
0.6638851165771484,483.0
0.6684520244598389,479.0
0.6723849773406982,465.0
0.6763381958007812,477.0
0.6806530952453613,460.0
0.6849880218505859,469.0
0.6888830661773682,482.0
0.6931838989257812,491.0
0.6970770359039307,487.0
0.7016410827636719,491.0
0.7053968906402588,489.0
0.7096192836761475,494.0
0.7140130996704102,481.0
0.7182531356811523,488.0
0.7230930328369141,490.0
0.7298030853271484,494.0
0.734417200088501,497.0
0.7382380962371826,499.0
0.7429029941558838,504.0
0.7467319965362549,513.0
0.7508041858673096,514.0
0.754626989364624,501.0
0.7585132122039795,497.0
0.7629680633544922,518.0
0.7676630020141602,520.0
0.7716450691223145,523.0
0.7760319709777832,521.0
0.7797548770904541,532.0
0.7859671115875244,527.0
0.7904901504516602,532.0
0.7981281280517578,535.0
0.8047242164611816,532.0
0.8093039989471436,526.0
0.8136329650878906,521.0
0.8184380531311035,514.0
0.8223650455474854,514.0
0.8266720771789551,510.0
0.8303890228271484,515.0
0.8346128463745117,512.0
0.8384392261505127,515.0
0.8422939777374268,524.0
0.8463332653045654,513.0
0.8526101112365723,529.0
0.8601541519165039,529.0
0.8648381233215332,502.0
0.8716959953308105,522.0
0.8756430149078369,517.0
0.8800139427185059,519.0
0.8843450546264648,499.0
0.8883950710296631,513.0
0.8923361301422119,520.0
0.8958849906921387,524.0
0.9024980068206787,527.0
0.9068589210510254,535.0
0.9129500389099121,536.0
0.9191710948944092,547.0
0.9234521389007568,546.0
0.929663896560669,546.0
0.9364290237426758,542.0
0.9432361125946045,535.0
0.9485139846801758,532.0
0.9524571895599365,530.0
0.95638108253479,524.0
0.963670015335083,523.0
0.968325138092041,515.0
0.9718639850616455,513.0
0.975956916809082,514.0
0.9804079532623291,514.0
0.9846949577331543,514.0
0.9891571998596191,497.0
0.9961421489715576,510.0
1.002345085144043,505.0
1.0069282054901123,505.0
1.0114481449127197,514.0
1.015765905380249,505.0
1.0197620391845703,521.0
1.0234830379486084,525.0
1.030428171157837,530.0
1.0348572731018066,535.0
1.0389301776885986,530.0
1.0427420139312744,533.0
1.0461571216583252,524.0
1.0528202056884766,511.0
1.0573019981384277,508.0
1.061479091644287,506.0
1.0654051303863525,496.0
1.0719850063323975,486.0
1.075923204421997,453.0
1.0798780918121338,450.0
1.084625005722046,468.0
1.0887720584869385,471.0
1.0931580066680908,473.0
1.0968661308288574,488.0
1.1007962226867676,504.0
1.1045689582824707,507.0
1.1107420921325684,500.0
1.1155641078948975,517.0
1.1200990676879883,503.0
1.1265861988067627,513.0
1.1315791606903076,551.0
1.1385321617126465,564.0
1.1428921222686768,573.0
1.146632194519043,577.0
1.1510109901428223,569.0
1.1552202701568604,556.0
1.159424066543579,518.0
1.1632320880889893,522.0
1.169222116470337,499.0
1.174471139907837,488.0
1.1789181232452393,490.0
1.185631275177002,491.0
1.1908490657806396,495.0
1.1950209140777588,507.0
1.1988351345062256,500.0
1.2029101848602295,503.0
1.206728219985962,506.0
1.213332176208496,507.0
1.2173149585723877,509.0
1.221534252166748,493.0
1.2261550426483154,512.0
1.2300400733947754,509.0
1.2359249591827393,520.0
1.2404160499572754,524.0
1.2473580837249756,525.0
1.2515501976013184,507.0
1.2552869319915771,531.0
1.259113073348999,509.0
1.2632129192352295,536.0
1.269589900970459,536.0
1.2766392230987549,536.0
1.2808220386505127,531.0
1.2849090099334717,527.0
1.289182186126709,524.0
1.2965941429138184,520.0
1.301090955734253,491.0
1.3049981594085693,495.0
1.309028148651123,508.0
1.3133931159973145,512.0
1.317641258239746,512.0
1.3219518661499023,514.0
1.3266799449920654,514.0
1.3308331966400146,522.0
1.337416172027588,524.0
1.343459129333496,505.0
1.3476378917694092,531.0
1.3550360202789307,526.0
1.3593509197235107,521.0
1.3637230396270752,511.0
1.36753511428833,501.0
1.3717100620269775,490.0
1.37587308883667,483.0
1.3793902397155762,477.0
1.3839962482452393,479.0
1.3878490924835205,476.0
1.394416093826294,470.0
1.4015991687774658,483.0
1.4060299396514893,481.0
1.4136760234832764,487.0
1.418492078781128,492.0
1.4226689338684082,494.0
1.430124044418335,497.0
1.4345042705535889,511.0
1.4383320808410645,523.0
1.4444100856781006,538.0
1.4517080783843994,547.0
1.4566929340362549,549.0
1.4638030529022217,548.0
1.4686050415039062,540.0
1.4724080562591553,531.0
1.476593017578125,524.0
1.480118989944458,511.0
1.4863688945770264,502.0
1.4937231540679932,496.0
1.4990839958190918,495.0
1.5037040710449219,495.0
1.5103790760040283,469.0
1.5155160427093506,489.0
1.5197312831878662,492.0
1.5236451625823975,495.0
1.5302271842956543,497.0
1.5342271327972412,498.0
1.5384571552276611,490.0
1.5425829887390137,501.0
1.546509027481079,501.0
1.551116943359375,493.0
1.5551841259002686,489.0
1.5593681335449219,486.0
1.5630559921264648,460.0
1.5694911479949951,479.0
1.57676100730896,483.0
1.5810248851776123,484.0
1.5881562232971191,481.0
1.5944302082061768,485.0
1.5990550518035889,454.0
1.6029422283172607,469.0
1.6067790985107422,468.0
1.613642930984497,476.0
1.6182301044464111,501.0
1.6222281455993652,524.0
1.6263551712036133,518.0
1.6300091743469238,534.0
1.6341071128845215,540.0
1.6377949714660645,523.0
1.6438429355621338,489.0
1.648475170135498,494.0
1.655277967453003,476.0
1.6596300601959229,451.0
1.6635470390319824,488.0
1.6682920455932617,506.0
1.6723639965057373,519.0
1.6766812801361084,524.0
1.6803932189941406,522.0
1.6849839687347412,505.0
1.6888220310211182,470.0
1.6926751136779785,483.0
1.6964731216430664,443.0
1.702742099761963,455.0
1.710484266281128,428.0
1.7155041694641113,430.0
1.7194769382476807,448.0
1.7232050895690918,450.0
1.7299060821533203,449.0
1.734377145767212,460.0
1.7380940914154053,468.0
1.7423889636993408,477.0
1.7461721897125244,479.0
1.7523691654205322,489.0
1.7566399574279785,496.0
1.7633090019226074,502.0
1.767315149307251,511.0
1.771653175354004,516.0
1.7761142253875732,521.0
1.7803220748901367,516.0
1.7845120429992676,507.0
1.7885680198669434,518.0
1.7933223247528076,512.0
1.7971141338348389,509.0
1.8017792701721191,501.0
1.805436134338379,499.0
1.8093931674957275,500.0
1.8129651546478271,479.0
1.819472074508667,497.0
1.8266360759735107,502.0
1.83150315284729,507.0
1.8381340503692627,491.0
1.8428819179534912,512.0
1.8467471599578857,509.0
1.8512229919433594,508.0
1.855039119720459,513.0
1.8595702648162842,516.0
1.8632681369781494,515.0
1.8696269989013672,530.0
1.8767049312591553,507.0
1.8815641403198242,526.0
1.8876478672027588,528.0
1.8923110961914062,534.0
1.8960270881652832,537.0
1.902529001235962,539.0
1.9076480865478516,539.0
1.911783218383789,513.0
1.9160230159759521,535.0
1.9204280376434326,538.0
1.9269742965698242,534.0
1.9318749904632568,535.0
1.9380860328674316,531.0
1.9422991275787354,534.0
1.9458601474761963,532.0
1.9519679546356201,514.0
1.9559788703918457,529.0
1.9625771045684814,536.0
1.968714952468872,528.0
1.9734282493591309,530.0
1.9802980422973633,529.0
1.984957218170166,532.0
1.9886460304260254,532.0
1.992811918258667,532.0
1.9962871074676514,536.0
2.0025429725646973,531.0
2.0077311992645264,527.0
2.0119991302490234,521.0
2.0186121463775635,522.0
2.0235931873321533,522.0
2.030089855194092,522.0
2.0345680713653564,511.0
2.038240909576416,507.0
2.042926073074341,501.0
2.0464842319488525,472.0
2.0530431270599365,494.0
2.0598649978637695,492.0
2.064436197280884,488.0
2.0712990760803223,501.0
2.075902223587036,507.0
2.0799100399017334,511.0
2.0844790935516357,511.0
2.088508129119873,546.0
2.0931050777435303,547.0
2.097107172012329,532.0
2.101727247238159,522.0
2.1057000160217285,507.0
2.1099801063537598,488.0
2.113931894302368,478.0
2.1183841228485107,472.0
2.1223652362823486,473.0
2.126566171646118,475.0
2.1300010681152344,481.0
2.1342051029205322,488.0
2.1377739906311035,489.0
2.1440200805664062,484.0
2.1484599113464355,483.0
2.15568208694458,482.0
2.1600680351257324,498.0
2.1641221046447754,492.0
2.168323040008545,494.0
2.172394275665283,489.0
2.176645040512085,489.0
2.180608034133911,477.0
2.18505597114563,474.0
2.189329147338867,457.0
2.196428060531616,476.0
2.2005770206451416,482.0
2.204119920730591,487.0
2.2103641033172607,492.0
2.2143540382385254,491.0
2.2213940620422363,489.0
2.227727174758911,498.0
2.232703924179077,494.0
2.2365102767944336,489.0
2.2408010959625244,496.0
2.24466609954834,476.0
2.2486250400543213,502.0
2.2552220821380615,501.0
2.2597250938415527,499.0
2.2636682987213135,496.0
2.267580032348633,488.0
2.27101993560791,488.0
2.2773380279541016,493.0
2.2824230194091797,504.0
2.2870121002197266,513.0
2.293635129928589,513.0
2.2977421283721924,510.0
2.3051040172576904,509.0
2.30981707572937,507.0
2.3136370182037354,499.0
2.3176450729370117,497.0
2.321871042251587,479.0
2.3261051177978516,495.0
2.330156087875366,495.0
2.334557056427002,499.0
2.3383049964904785,507.0
2.342621088027954,475.0
2.346374034881592,501.0
2.3525302410125732,491.0
2.357356071472168,517.0
2.3614211082458496,540.0
2.365473985671997,543.0
2.372246026992798,520.0
2.3766660690307617,544.0
2.3803019523620605,544.0
2.3843460083007812,526.0
2.388129949569702,515.0
2.3922929763793945,509.0
2.3959872722625732,505.0
2.399925947189331,501.0
2.4040160179138184,505.0
2.4106390476226807,505.0
2.415476083755493,506.0
2.4193150997161865,505.0
2.4226841926574707,500.0
2.429290294647217,497.0
2.435603141784668,494.0
2.440524101257324,497.0
2.4449031352996826,493.0
2.4487500190734863,497.0
2.452449083328247,502.0
2.4558188915252686,505.0
2.459818124771118,508.0
2.4640140533447266,517.0
2.468433141708374,519.0
2.472269058227539,520.0
2.4768991470336914,519.0
2.480666160583496,521.0
2.485276222229004,526.0
2.4903059005737305,526.0
2.4988839626312256,541.0
2.502770185470581,532.0
2.506524085998535,536.0
2.5128328800201416,528.0
2.518982172012329,513.0
2.5239200592041016,498.0
2.527698040008545,489.0
2.531881093978882,483.0
2.5400471687316895,464.0
2.5469119548797607,478.0
2.5512850284576416,447.0
2.5549862384796143,472.0
2.5610060691833496,472.0
2.568592071533203,472.0
2.573972225189209,479.0
2.5779380798339844,490.0
2.582263946533203,494.0
2.5864670276641846,511.0
2.5906121730804443,512.0
2.5944952964782715,520.0
2.598299026489258,500.0
2.604907989501953,525.0
2.6087772846221924,537.0
2.6129891872406006,548.0
2.6174399852752686,554.0
2.621608257293701,552.0
2.6257882118225098,550.0
2.629469156265259,518.0
2.633779287338257,533.0
2.6373560428619385,522.0
2.6437411308288574,512.0
2.6490111351013184,496.0
2.6527881622314453,494.0
2.6566500663757324,493.0
2.6629302501678467,478.0
2.6694750785827637,507.0
2.6770238876342773,511.0
2.6822011470794678,523.0
2.6862640380859375,526.0
2.6903841495513916,526.0
2.697486162185669,515.0
2.7049660682678223,511.0
2.7091832160949707,512.0
2.713526964187622,507.0
2.717855215072632,510.0
2.7220709323883057,506.0
2.7260231971740723,500.0
2.729870080947876,529.0
2.734610080718994,533.0
2.7387161254882812,543.0
2.7429840564727783,544.0
2.746824264526367,540.0
2.7508299350738525,542.0
2.7546370029449463,531.0
2.760723114013672,536.0
2.765655040740967,536.0
2.770164966583252,531.0
2.7765920162200928,526.0
2.7807841300964355,530.0
2.784752130508423,524.0
2.7889809608459473,531.0
2.792816162109375,526.0
2.7969162464141846,522.0
2.801290988922119,529.0
2.8050589561462402,530.0
2.809199094772339,518.0
2.813025951385498,536.0
2.8191678524017334,525.0
2.823667287826538,529.0
2.828000068664551,528.0
2.832362174987793,524.0
2.8363072872161865,534.0
2.840541124343872,511.0
2.844351291656494,529.0
2.848626136779785,526.0
2.855394124984741,519.0
2.8597891330718994,518.0
2.8635120391845703,518.0
2.867582082748413,516.0
2.871450185775757,517.0
2.877484083175659,496.0
2.8818342685699463,514.0
2.888749122619629,514.0
2.8931491374969482,515.0
2.8971760272979736,515.0
2.90161395072937,500.0
2.9054200649261475,511.0
2.9098029136657715,517.0
2.9134252071380615,516.0
2.9194400310516357,516.0
2.923870086669922,522.0
2.928006172180176,534.0
2.93239426612854,535.0
2.9367599487304688,536.0
2.9407999515533447,540.0
2.944788932800293,530.0
2.949259042739868,535.0
2.953083038330078,500.0
2.9567809104919434,526.0
2.960604190826416,499.0
2.9641919136047363,517.0
2.9713430404663086,523.0
2.975893974304199,518.0
2.9795570373535156,522.0
2.9857630729675293,526.0
2.9909701347351074,501.0
2.9948699474334717,529.0
2.9991960525512695,525.0
3.0028719902038574,523.0
3.0099360942840576,524.0
3.0138580799102783,505.0
3.018097162246704,525.0
3.021543025970459,535.0
3.026719093322754,516.0
3.0316390991210938,537.0
3.0394248962402344,513.0
3.0465691089630127,532.0
3.0514962673187256,523.0
3.0558462142944336,520.0
3.0625362396240234,523.0
3.0693359375,522.0
3.074110269546509,526.0
3.0787341594696045,527.0
3.0854310989379883,536.0
3.0907950401306152,537.0
3.0951950550079346,547.0
3.1017210483551025,555.0
3.1065781116485596,551.0
3.1134700775146484,554.0
3.118077039718628,535.0
3.1223161220550537,543.0
3.1264190673828125,537.0
3.1306240558624268,528.0
3.134632110595703,494.0
3.1390950679779053,506.0
3.143871307373047,502.0
3.1479721069335938,491.0
3.154757022857666,464.0
3.1590261459350586,478.0
3.1634652614593506,457.0
3.1678261756896973,471.0
3.17209529876709,476.0
3.176002025604248,480.0
3.180166006088257,484.0
3.184530258178711,485.0
3.1884560585021973,493.0
3.1932830810546875,510.0
3.197129964828491,532.0
3.201489210128784,552.0
3.2053422927856445,570.0
3.209210157394409,576.0
3.2129361629486084,583.0
3.219391107559204,571.0
3.2271220684051514,558.0
3.232105255126953,530.0
3.236196994781494,510.0
3.239989995956421,489.0
3.2466070652008057,459.0
3.250657081604004,461.0
3.2549381256103516,480.0
3.2593891620635986,457.0
3.263658285140991,460.0
3.2683370113372803,467.0
3.272475004196167,474.0
3.2795569896698,480.0
3.2838172912597656,491.0
3.287743091583252,483.0
3.294049024581909,512.0
3.2992749214172363,515.0
3.3035480976104736,524.0
3.310253143310547,530.0
3.315441131591797,515.0
3.3219611644744873,515.0
3.3264400959014893,514.0
3.3302881717681885,515.0
3.33461594581604,494.0
3.338465929031372,515.0
3.342299222946167,519.0
3.3467280864715576,522.0
3.3508012294769287,522.0
3.355123281478882,527.0
3.359389066696167,529.0
3.363391160964966,519.0
3.3672831058502197,524.0
3.370993137359619,523.0
3.377678155899048,522.0
3.3827950954437256,523.0
3.3873870372772217,524.0
3.3937880992889404,521.0
3.3982582092285156,523.0
3.4051382541656494,528.0
3.4098100662231445,515.0
3.413936138153076,513.0
3.418039083480835,519.0
3.4224231243133545,513.0
3.426772117614746,519.0
3.4308860301971436,527.0
3.438015937805176,529.0
3.4423351287841797,535.0
3.446208953857422,536.0
3.450731039047241,542.0
3.4549901485443115,523.0
3.459613084793091,539.0
3.4634711742401123,531.0
3.4673702716827393,529.0
3.4717421531677246,518.0
3.475849151611328,520.0
3.4799511432647705,527.0
3.4840900897979736,529.0
3.487955093383789,539.0
3.4925339221954346,543.0
3.4964590072631836,533.0
3.5008208751678467,526.0
3.50492787361145,501.0
3.5092809200286865,501.0
3.5134830474853516,494.0
3.517369031906128,485.0
3.521710157394409,496.0
3.526116132736206,484.0
3.530226230621338,500.0
3.5350229740142822,500.0
3.5386669635772705,502.0
3.542922019958496,502.0
3.5467729568481445,508.0
3.5518150329589844,508.0
3.5555341243743896,506.0
3.560250997543335,506.0
3.5653581619262695,504.0
3.5701379776000977,506.0
3.5769882202148438,504.0
3.582749128341675,502.0
3.5872161388397217,505.0
3.5937352180480957,502.0
3.5982890129089355,503.0
3.6021130084991455,499.0
3.605759859085083,505.0
3.609935998916626,512.0
3.615051031112671,515.0
3.6197659969329834,515.0
3.624199151992798,517.0
3.628343105316162,511.0
3.632599115371704,516.0
3.6365201473236084,517.0
3.640442132949829,520.0
3.645108222961426,521.0
3.648869037628174,524.0
3.6540441513061523,521.0
3.6604671478271484,518.0
3.665515899658203,518.0
3.672159194946289,513.0
3.676232099533081,514.0
3.6800920963287354,518.0
3.684514045715332,512.0
3.688444137573242,512.0
3.6925270557403564,500.0
3.6963040828704834,510.0
3.7025930881500244,522.0
3.7105660438537598,521.0
3.71560001373291,521.0
3.7222530841827393,498.0
3.726290225982666,520.0
3.7300541400909424,528.0
3.7343552112579346,524.0
3.7380080223083496,526.0
3.74407696723938,523.0
3.748425245285034,528.0
3.754765033721924,507.0
3.7607243061065674,524.0
3.764981985092163,518.0
3.7715492248535156,519.0
3.7761199474334717,527.0
3.780020236968994,520.0
3.7844231128692627,521.0
3.788425922393799,524.0
3.7929482460021973,528.0
3.7964930534362793,529.0
3.800732135772705,529.0
3.804326057434082,529.0
3.8105552196502686,535.0
3.8154730796813965,553.0
3.8195738792419434,524.0
3.8240411281585693,541.0
3.8283910751342773,539.0
3.8325722217559814,540.0
3.8366620540618896,532.0
3.840569019317627,527.0
3.8444089889526367,523.0
3.8480241298675537,517.0
3.855410099029541,491.0
3.859534978866577,507.0
3.8646929264068604,501.0
3.8720271587371826,498.0
3.875967264175415,492.0
3.8797149658203125,492.0
3.883888006210327,490.0
3.887592077255249,496.0
3.8937439918518066,514.0
3.8989810943603516,498.0
3.9035911560058594,498.0
3.9100840091705322,504.0
3.915321111679077,502.0
3.9219250679016113,499.0
3.926673173904419,469.0
3.930680990219116,494.0
3.9351680278778076,465.0
3.93936824798584,493.0
3.9465582370758057,490.0
3.9508960247039795,477.0
3.9547390937805176,497.0
3.9592931270599365,468.0
3.9632229804992676,487.0
3.9674222469329834,486.0
3.9711670875549316,482.0
3.9770591259002686,481.0
3.9810640811920166,479.0
3.9881629943847656,465.0
3.992449998855591,498.0
3.9964141845703125,515.0
4.000798225402832,533.0
4.0043251514434814,543.0
4.010780096054077,540.0
4.0153892040252686,533.0
4.0197930335998535,522.0
4.024219036102295,507.0
4.028192043304443,464.0
4.0326080322265625,483.0
4.0364930629730225,485.0
4.040891170501709,486.0
4.045133113861084,490.0
4.049001216888428,500.0
4.052650213241577,503.0
4.056065082550049,507.0
4.0625221729278564,504.0
4.0687479972839355,504.0
4.073756217956543,516.0
4.080138921737671,511.0
4.084945201873779,522.0
4.089240074157715,508.0
4.096540212631226,523.0
4.101381063461304,497.0
4.105431079864502,511.0
4.10987114906311,512.0
4.1140031814575195,486.0
4.118734121322632,504.0
4.122568130493164,501.0
4.129980087280273,471.0
4.1347949504852295,490.0
4.138651132583618,487.0
4.142762184143066,488.0
4.147113084793091,488.0
4.151241302490234,492.0
4.155627965927124,484.0
4.160043954849243,504.0
4.164022922515869,522.0
4.168086051940918,540.0
4.17192006111145,551.0
4.1757402420043945,565.0
4.17937707901001,556.0
4.185512065887451,551.0
4.190216064453125,549.0
4.196495056152344,551.0
4.2004241943359375,556.0
4.204268932342529,560.0
4.210442066192627,551.0
4.215651035308838,533.0
4.219609022140503,521.0
4.223628997802734,500.0
4.229830026626587,488.0
4.236196994781494,474.0
4.240798234939575,442.0
4.245239019393921,474.0
4.248980283737183,466.0
4.252998113632202,493.0
4.257562160491943,497.0
4.2616260051727295,496.0
4.265778064727783,484.0
4.269800186157227,499.0
4.273741006851196,499.0
4.280311107635498,492.0
4.284797191619873,483.0
4.288999080657959,485.0
4.2930920124053955,472.0
4.297316074371338,474.0
4.30125617980957,472.0
4.305505037307739,474.0
4.309747219085693,464.0
4.313559055328369,492.0
4.317468166351318,504.0
4.321129083633423,505.0
4.327681064605713,511.0
4.332215070724487,501.0
4.336356163024902,507.0
4.340104103088379,496.0
4.347105026245117,497.0
4.351229190826416,505.0
4.3554911613464355,527.0
4.3598010540008545,535.0
4.363689184188843,541.0
4.3679022789001465,535.0
4.371621131896973,532.0
4.378141164779663,518.0
4.385629177093506,508.0
4.390164136886597,504.0
4.39647912979126,494.0
4.400390148162842,484.0
4.404397964477539,490.0
4.409017086029053,483.0
4.413079023361206,483.0
4.419071197509766,491.0
4.424010992050171,494.0
4.428223133087158,502.0
4.432235956192017,506.0
4.436381101608276,511.0
4.440361261367798,520.0
4.446911096572876,521.0
4.453339099884033,527.0
4.458545207977295,524.0
4.462383031845093,520.0
4.468922138214111,529.0
4.473480224609375,526.0
4.479974031448364,532.0
4.484266996383667,508.0
4.488142013549805,532.0
4.494348049163818,530.0
4.499208211898804,534.0
4.503243923187256,536.0
4.506953239440918,540.0
4.5143022537231445,538.0
4.521586179733276,541.0
4.526324272155762,541.0
4.530220985412598,550.0
4.534095048904419,538.0
4.538496017456055,530.0
4.542469024658203,530.0
4.546551942825317,522.0
4.550986051559448,525.0
4.554790019989014,525.0
4.559580087661743,530.0
4.563447952270508,533.0
4.5677170753479,540.0
4.571496248245239,540.0
4.575452089309692,549.0
4.579911231994629,552.0
4.5843260288238525,547.0
4.588698148727417,546.0
4.592865943908691,542.0
4.596934080123901,542.0
4.601155042648315,544.0
4.604917049407959,539.0
4.608999252319336,534.0
4.612771987915039,535.0
4.618999004364014,540.0
4.623615980148315,519.0
4.6308369636535645,536.0
4.638257026672363,532.0
4.6431379318237305,537.0
4.6472461223602295,526.0
4.651648998260498,526.0
4.655764102935791,518.0
4.659929990768433,510.0
4.664053916931152,509.0
4.668328046798706,506.0
4.672156095504761,480.0
4.6762800216674805,506.0
4.679988145828247,507.0
4.686193227767944,511.0
4.690531015396118,510.0
4.694457054138184,503.0
4.698060035705566,500.0
4.704480886459351,501.0
4.7091429233551025,495.0
4.712982892990112,530.0
4.717292070388794,564.0
4.720778942108154,589.0
4.72731614112854,597.0
4.732258081436157,596.0
4.736319303512573,577.0
4.740093231201172,554.0
4.746215105056763,525.0
4.752241134643555,516.0
4.757250070571899,504.0
4.761312961578369,492.0
4.7654759883880615,485.0
4.769667148590088,490.0
4.773823976516724,499.0
4.777661085128784,500.0
4.781437158584595,505.0
4.787744998931885,510.0
4.794154167175293,513.0
4.798804998397827,523.0
4.803349018096924,530.0
4.807260036468506,531.0
4.811452150344849,509.0
4.815903902053833,534.0
4.820287227630615,536.0
4.826956033706665,529.0
4.832218170166016,522.0
4.8361430168151855,498.0
4.839899063110352,515.0
4.846903085708618,519.0
4.851563930511475,496.0
4.8555121421813965,516.0
4.859606981277466,513.0
4.863074064254761,512.0
4.86926007270813,514.0
4.873784065246582,511.0
4.877614974975586,497.0
4.881296157836914,500.0
4.887883901596069,516.0
4.893937110900879,521.0
4.899142026901245,540.0
4.903111219406128,564.0
4.907562971115112,577.0
4.911468982696533,578.0
4.91564416885376,570.0
4.919353008270264,563.0
4.923140048980713,547.0
4.929826021194458,524.0
4.935975074768066,508.0
4.940625190734863,493.0
4.945237874984741,494.0
4.94923996925354,476.0
4.953749895095825,490.0
4.959931135177612,497.0
4.96422815322876,521.0
4.971754312515259,517.0
4.976476192474365,493.0
4.98010516166687,514.0
4.983843088150024,514.0
4.987703084945679,519.0
4.993716239929199,506.0
4.999156951904297,519.0
5.003544092178345,519.0
5.0102219581604,522.0
5.015259027481079,508.0
5.019219160079956,525.0
5.0230712890625,528.0
5.029820203781128,523.0
5.034215211868286,527.0
5.038096189498901,515.0
5.04394006729126,527.0
5.049212217330933,524.0
5.053194046020508,524.0
5.057538986206055,524.0
5.06173300743103,524.0
5.065846920013428,520.0
5.0703840255737305,524.0
5.076489210128784,531.0
5.080416917800903,529.0
5.084443092346191,537.0
5.088212966918945,533.0
5.092013120651245,537.0
5.096045017242432,543.0
5.102150201797485,539.0
5.106953144073486,536.0
5.113368988037109,518.0
5.11725115776062,540.0
5.121565103530884,539.0
5.12758207321167,537.0
5.13269305229187,537.0
5.1369099617004395,532.0
5.1431660652160645,531.0
5.147119998931885,528.0
5.151780128479004,530.0
5.155884027481079,523.0
5.163192987442017,531.0
5.167622089385986,527.0
5.171487092971802,533.0
5.177689075469971,530.0
5.185030221939087,527.0
5.189701080322266,516.0
5.196536064147949,509.0
5.202725172042847,525.0
5.2103431224823,527.0
5.215475082397461,488.0
5.219375133514404,523.0
5.223669052124023,506.0
5.227625131607056,531.0
5.231452226638794,547.0
5.238410949707031,545.0
5.242455959320068,540.0
5.246262073516846,537.0
5.25245213508606,526.0
5.257554054260254,526.0
5.261534214019775,512.0
5.265322208404541,516.0
5.2725560665130615,509.0
5.280055046081543,498.0
5.284991979598999,496.0
5.289196968078613,486.0
5.296741008758545,454.0
5.301149129867554,477.0
5.305037021636963,472.0
5.311344146728516,469.0
5.315809011459351,447.0
5.320097923278809,481.0
5.326879978179932,500.0
5.332173109054565,515.0
5.338334083557129,527.0
5.344858169555664,545.0
5.352405071258545,538.0
5.357286214828491,529.0
5.364059209823608,511.0
5.36878514289856,489.0
5.372551202774048,475.0
5.379801034927368,469.0
5.383852958679199,461.0
5.387728214263916,475.0
5.394151210784912,477.0
5.399394989013672,493.0
5.403657913208008,509.0
5.409742116928101,509.0
5.415152072906494,509.0
5.422047853469849,505.0
5.426944971084595,503.0
5.430781126022339,492.0
5.43493914604187,493.0
5.438713073730469,491.0
5.442541122436523,486.0
5.44710898399353,475.0
5.451780080795288,473.0
5.455397129058838,472.0
5.459274053573608,466.0
5.462708950042725,463.0
5.467209100723267,464.0
5.470813274383545,462.0
5.476882219314575,463.0
5.480753183364868,465.0
5.484753131866455,471.0
5.488312005996704,473.0
5.494369029998779,454.0
5.49912428855896,469.0
5.502861022949219,502.0
5.50753927230835,528.0
5.51149320602417,511.0
5.515916109085083,542.0
5.519635200500488,554.0
5.523283243179321,530.0
5.5296471118927,561.0
5.53560209274292,563.0
5.5397789478302,553.0
5.546158075332642,540.0
5.550634145736694,520.0
5.554347991943359,504.0
5.560935020446777,490.0
5.565591096878052,487.0
5.569920063018799,484.0
5.573850154876709,478.0
5.577651262283325,485.0
5.581359148025513,490.0
5.588172912597656,489.0
5.592684030532837,492.0
5.596728086471558,479.0
5.601401090621948,483.0
5.605269908905029,518.0
5.609494924545288,524.0
5.612961053848267,539.0
5.6173200607299805,537.0
5.620867013931274,538.0
5.627007961273193,528.0
5.630943298339844,530.0
5.637679100036621,508.0
5.64267110824585,522.0
5.646528959274292,520.0
5.650964260101318,525.0
5.6548011302948,522.0
5.659420013427734,533.0
5.663425922393799,527.0
5.668020963668823,536.0
5.671785116195679,535.0
5.676127910614014,535.0
5.679642200469971,533.0
5.683629035949707,521.0
5.687188148498535,513.0
5.693169116973877,510.0
5.697033166885376,508.0
5.700937986373901,480.0
5.704971075057983,502.0
5.709248065948486,509.0
5.7130348682403564,502.0
5.717403173446655,505.0
5.720869064331055,510.0
5.727214097976685,515.0
5.731547117233276,523.0
5.738330125808716,508.0
5.74294900894165,519.0
5.746716022491455,524.0
5.751068115234375,523.0
5.755043029785156,504.0
5.759464263916016,506.0
5.763167142868042,517.0
5.767268180847168,524.0
5.77087926864624,526.0
5.776983022689819,532.0
5.780922174453735,523.0
5.788140058517456,531.0
5.7924840450286865,536.0
5.796694040298462,538.0
5.800918102264404,531.0
5.805622100830078,531.0
5.8109869956970215,506.0
5.8159871101379395,539.0
5.820554971694946,535.0
5.82729697227478,534.0
5.832397937774658,531.0
5.837268114089966,527.0
5.8438560962677,526.0
5.848849058151245,523.0
5.856781959533691,523.0
5.863647937774658,527.0
5.868297100067139,526.0
5.872197151184082,528.0
5.876327037811279,536.0
5.880671262741089,522.0
5.88581919670105,532.0
5.890355110168457,539.0
5.895461082458496,541.0
5.902511119842529,524.0
5.907113075256348,540.0
5.910719871520996,543.0
5.914294958114624,541.0
5.920688152313232,538.0
5.927035093307495,535.0
5.932009220123291,532.0
5.936150074005127,534.0
5.939785957336426,530.0
5.946206092834473,529.0
5.952426195144653,531.0
5.957216024398804,526.0
5.961674928665161,523.0
5.965960264205933,526.0
5.9698450565338135,525.0
5.973484039306641,532.0
5.977097988128662,542.0
5.980921030044556,552.0
5.987491130828857,564.0
5.992321014404297,571.0
5.995851993560791,575.0
6.002132892608643,550.0
6.006408214569092,535.0
6.01279616355896,526.0
6.019124269485474,506.0
6.023911237716675,504.0
6.027811050415039,497.0
6.032505989074707,497.0
6.036174058914185,503.0
6.040218114852905,506.0
6.0462751388549805,490.0
6.050495862960815,513.0
6.054029941558838,499.0
6.059882164001465,516.0
6.063810110092163,518.0
6.067902088165283,521.0
6.072375059127808,515.0
6.0768959522247314,517.0
6.080989122390747,526.0
6.087116003036499,527.0
6.09354305267334,526.0
6.097414016723633,525.0
6.10194206237793,524.0
6.105358123779297,513.0
6.109276056289673,499.0
6.112617254257202,506.0
6.118721008300781,509.0
6.123679876327515,510.0
6.1301140785217285,503.0
6.134572982788086,490.0
6.138806104660034,507.0
6.14325213432312,511.0
6.147413015365601,517.0
6.151535987854004,518.0
6.15548300743103,518.0
6.1597349643707275,517.0
6.163233995437622,515.0
6.167232990264893,507.0
6.17063307762146,500.0
6.176735162734985,505.0
6.180567026138306,505.0
6.185100078582764,507.0
6.189228057861328,514.0
6.195880174636841,515.0
6.202191114425659,508.0
6.206583023071289,505.0
6.213385105133057,505.0
6.217753171920776,500.0
6.221560001373291,483.0
6.226231098175049,500.0
6.229681015014648,497.0
6.233865976333618,504.0
6.237323999404907,498.0
6.243390083312988,507.0
6.247284889221191,503.0
6.252015113830566,509.0
6.256415128707886,509.0
6.262781143188477,523.0
6.267300128936768,543.0
6.270873069763184,556.0
6.277031183242798,573.0
6.281044960021973,583.0
6.2875590324401855,562.0
6.293914079666138,569.0
6.298824071884155,554.0
6.303156137466431,542.0
6.307202100753784,525.0
6.310998916625977,490.0
6.314316987991333,499.0
6.321129083633423,495.0
6.325495004653931,493.0
6.3290441036224365,502.0
6.335249185562134,496.0
6.339072942733765,508.0
6.343200922012329,515.0
6.347306966781616,523.0
6.351869106292725,527.0
6.355878114700317,523.0
6.362077236175537,528.0
6.368916273117065,532.0
6.373124122619629,535.0
6.379137992858887,540.0
6.385140895843506,549.0
6.390330076217651,543.0
6.394062042236328,541.0
6.39825701713562,539.0
6.40419602394104,538.0
6.4104249477386475,526.0
6.414698123931885,527.0
6.421678066253662,517.0
6.42603611946106,527.0
6.4301371574401855,523.0
6.4346232414245605,525.0
6.4383721351623535,516.0
6.442427158355713,524.0
6.445966958999634,527.0
6.452315092086792,528.0
6.456533908843994,529.0
6.462615013122559,522.0
6.468642950057983,527.0
6.473570108413696,525.0
6.479872941970825,522.0
6.4837870597839355,521.0
6.487292051315308,523.0
6.492946147918701,524.0
6.497631311416626,533.0
6.5043580532073975,508.0
6.508828163146973,526.0
6.512346029281616,501.0
6.518583059310913,527.0
6.523497104644775,500.0
6.529957056045532,525.0
6.533991098403931,528.0
6.538249254226685,523.0
6.5425660610198975,531.0
6.546441078186035,526.0
6.5510241985321045,532.0
6.554628133773804,536.0
6.5589821338653564,533.0
6.562517881393433,512.0
6.5685811042785645,531.0
6.572491884231567,535.0
6.579135179519653,539.0
6.585110902786255,540.0
6.590281248092651,533.0
6.5969719886779785,540.0
6.601332187652588,543.0
6.604974985122681,540.0
6.609524250030518,535.0
6.613138198852539,538.0
6.617325067520142,533.0
6.6208460330963135,528.0
6.6267619132995605,529.0
6.630687952041626,522.0
6.634905099868774,536.0
6.638443946838379,543.0
6.6421730518341064,509.0
6.646064043045044,535.0
6.652460098266602,539.0
6.657628059387207,531.0
6.661297082901001,530.0
6.664897918701172,525.0
6.671239137649536,536.0
6.67699408531189,519.0
6.6818060874938965,522.0
6.68784499168396,523.0
6.69244909286499,527.0
6.6959710121154785,524.0
6.70188307762146,525.0
6.705739974975586,527.0
6.710109233856201,527.0
6.714076042175293,524.0
6.720844984054565,525.0
6.727423906326294,525.0
6.732255935668945,527.0
6.736123085021973,525.0
6.739764213562012,525.0
6.746027946472168,524.0
6.75239896774292,521.0
6.757456064224243,522.0
6.761791944503784,531.0
6.768318176269531,521.0
6.772231101989746,541.0
6.776681184768677,541.0
6.7801032066345215,533.0
6.783935308456421,528.0
6.788355112075806,487.0
6.7923290729522705,504.0
6.796313047409058,497.0
6.800593137741089,481.0
6.804041862487793,497.0
6.810671091079712,505.0
6.815319061279297,513.0
6.821631908416748,493.0
6.825638055801392,520.0
6.829090118408203,521.0
6.835124969482422,501.0
6.839919090270996,515.0
6.8462910652160645,491.0
6.851150035858154,505.0
6.8552141189575195,501.0
6.859700918197632,492.0
6.863506078720093,483.0
6.86761212348938,480.0
6.871340990066528,457.0
6.8778862953186035,483.0
6.885206937789917,486.0
6.889808177947998,488.0
6.896594047546387,492.0
6.900761127471924,501.0
6.905174970626831,505.0
6.90929913520813,511.0
6.913499116897583,514.0
6.9177751541137695,521.0
6.921608209609985,533.0
6.926400899887085,544.0
6.93035101890564,544.0
6.934681177139282,534.0
6.938455104827881,528.0
6.942438125610352,515.0
6.946747064590454,509.0
6.951311111450195,497.0
6.95556902885437,494.0
6.960095167160034,493.0
6.964190244674683,490.0
6.971764087677002,497.0
6.9761011600494385,496.0
6.980149030685425,500.0
6.984153985977173,508.0
6.9885969161987305,511.0
6.99262809753418,509.0
6.996809244155884,517.0
7.000635147094727,520.0
7.004366159439087,533.0
7.008901119232178,533.0
7.012778282165527,523.0
7.01919412612915,513.0
7.023897171020508,511.0
7.028464078903198,499.0
7.035218238830566,490.0
7.040372848510742,490.0
7.044553279876709,492.0
7.048398017883301,473.0
7.055499076843262,506.0
7.059863090515137,509.0
7.06407904624939,503.0
7.071150064468384,528.0
7.075927972793579,530.0
7.0795629024505615,536.0
7.083882093429565,518.0
7.087741136550903,510.0
7.094235181808472,487.0
7.098805904388428,483.0
7.103482007980347,463.0
7.110028982162476,485.0
7.115316152572632,498.0
7.119478940963745,516.0
7.123676061630249,511.0
7.127686023712158,529.0
7.131665229797363,525.0
7.135825157165527,517.0
7.139599084854126,510.0
7.146049976348877,490.0
7.152626037597656,484.0
7.157165050506592,481.0
7.16096305847168,474.0
7.164813041687012,454.0
7.171711206436157,472.0
7.17589807510376,478.0
7.180285215377808,484.0
7.1843581199646,487.0
7.188652992248535,500.0
7.193378925323486,511.0
7.197368144989014,528.0
7.201266050338745,542.0
7.204983949661255,559.0
7.209670066833496,559.0
7.213238000869751,548.0
7.219309091567993,561.0
7.223738193511963,506.0
7.227654218673706,517.0
7.231352090835571,507.0
7.238316059112549,501.0
7.243188142776489,490.0
7.247112274169922,483.0
7.251265048980713,484.0
7.255872964859009,482.0
7.263334035873413,489.0
7.268182039260864,497.0
7.272170305252075,509.0
7.276472091674805,496.0
7.280274152755737,516.0
7.284625053405762,523.0
7.288419008255005,522.0
7.292435169219971,523.0
7.29681921005249,522.0
7.301357984542847,524.0
7.305732011795044,520.0
7.310066223144531,520.0
7.313946008682251,523.0
7.317946195602417,524.0
7.3216681480407715,520.0
7.325685024261475,506.0
7.3294901847839355,531.0
7.33550500869751,531.0
7.339977979660034,534.0
7.348212957382202,545.0
7.354851007461548,548.0
7.359244108200073,549.0
7.363161087036133,549.0
7.367594242095947,526.0
7.371423959732056,548.0
7.377671241760254,543.0
7.3821799755096436,536.0
7.3861470222473145,529.0
7.389887094497681,528.0
7.396878004074097,532.0
7.401188135147095,535.0
7.405404090881348,536.0
7.409671068191528,539.0
7.413536071777344,545.0
7.417922019958496,545.0
7.421777009963989,557.0
7.425662279129028,523.0
7.429162979125977,541.0
7.435343027114868,538.0
7.439988136291504,527.0
7.443986177444458,520.0
7.448512077331543,518.0
7.45533299446106,503.0
7.459967136383057,516.0
7.463954210281372,514.0
7.468273162841797,499.0
7.471999168395996,514.0
7.476340293884277,510.0
7.480097055435181,528.0
7.483937978744507,538.0
7.4877049922943115,552.0
7.493505001068115,554.0
7.498409271240234,549.0
7.505086183547974,538.0
7.509458065032959,529.0
7.513290882110596,521.0
7.51741623878479,513.0
7.521111965179443,492.0
7.527313232421875,489.0
7.532490015029907,508.0
7.536449909210205,506.0
7.540168046951294,507.0
7.547199964523315,488.0
7.551497936248779,490.0
7.555520057678223,495.0
7.560227155685425,494.0
7.5641210079193115,499.0
7.572132110595703,501.0
7.576875925064087,507.0
7.5807530879974365,500.0
7.588022947311401,499.0
7.591996192932129,501.0
7.5961151123046875,507.0
7.60070013999939,506.0
7.604626178741455,517.0
7.6086812019348145,519.0
7.6130921840667725,511.0
7.618129014968872,519.0
7.621922016143799,518.0
7.625753164291382,519.0
7.630195140838623,513.0
7.635473012924194,504.0
7.640552282333374,472.0
7.644529104232788,496.0
7.65212607383728,479.0
7.657149076461792,474.0
7.661492109298706,473.0
7.665621995925903,473.0
7.669878959655762,473.0
7.6743199825286865,474.0
7.67841911315918,477.0
7.682435989379883,476.0
7.686830043792725,477.0
7.693284034729004,485.0
7.697674989700317,499.0
7.705039024353027,498.0
7.709644079208374,549.0
7.713144063949585,570.0
7.7191972732543945,577.0
7.724002122879028,566.0
7.727933168411255,551.0
7.732272148132324,535.0
7.736860036849976,521.0
7.743763208389282,511.0
7.748961925506592,500.0
7.753025054931641,496.0
7.757487058639526,499.0
7.761471271514893,496.0
7.765547037124634,501.0
7.7695841789245605,504.0
7.773437261581421,511.0
7.780580997467041,512.0
7.785206079483032,483.0
7.78961706161499,510.0
7.796643972396851,512.0
7.800729036331177,513.0
7.80501914024353,508.0
7.809060096740723,507.0
7.813140869140625,512.0
7.8176209926605225,511.0
7.821684122085571,514.0
7.827856063842773,509.0
7.832931041717529,506.0
7.8371429443359375,506.0
7.842985153198242,507.0
7.8482301235198975,513.0
7.852166175842285,518.0
7.856596946716309,513.0
7.863546133041382,511.0
7.8685622215271,511.0
7.872490167617798,511.0
7.879753112792969,506.0
7.884022951126099,506.0
7.887993097305298,506.0
7.894034147262573,521.0
7.898982048034668,508.0
7.903475284576416,533.0
7.907631158828735,540.0
7.911632061004639,534.0
7.91588020324707,532.0
7.919794082641602,527.0
7.923652172088623,535.0
7.927762031555176,514.0
7.931560277938843,505.0
7.9381842613220215,524.0
7.942076206207275,522.0
7.945768117904663,519.0
7.951913118362427,512.0
7.9565370082855225,513.0
7.963903903961182,516.0
7.968422174453735,511.0
7.972697973251343,507.0
7.97943902015686,507.0
7.983534097671509,511.0
7.9873692989349365,524.0
7.9939680099487305,529.0
7.99898099899292,526.0
8.003303050994873,525.0
8.007510900497437,523.0
8.011647939682007,522.0
8.016073226928711,523.0
8.01998519897461,518.0
8.026391983032227,524.0
8.030678987503052,521.0
8.0346999168396,521.0
8.038344144821167,516.0
8.042879104614258,503.0
8.046692132949829,520.0
8.052802085876465,513.0
8.057300090789795,529.0
8.061625003814697,527.0
8.068226099014282,526.0
8.073369979858398,531.0
8.080020904541016,532.0
8.084360122680664,538.0
8.088217973709106,516.0
8.092634201049805,538.0
8.096604108810425,541.0
8.100690126419067,532.0
8.10446810722351,537.0
8.110459089279175,528.0
8.115425109863281,509.0
8.119404077529907,529.0
8.124219179153442,531.0
8.128479957580566,532.0
8.132625102996826,535.0
8.13655424118042,537.0
8.140550136566162,541.0
8.144820213317871,543.0
8.148591995239258,545.0
8.155220985412598,543.0
8.159205198287964,540.0
8.163531064987183,534.0
8.16801404953003,509.0
8.172113180160522,530.0
8.176169157028198,533.0
8.180004119873047,525.0
8.184404850006104,528.0
8.188635110855103,529.0
8.193212032318115,527.0
8.19714903831482,525.0
8.2014319896698,525.0
8.20570707321167,525.0
8.210031032562256,531.0
8.214050054550171,532.0
8.217945098876953,534.0
8.22172212600708,524.0
8.225863218307495,533.0
8.230216264724731,532.0
8.234278202056885,528.0
8.238059043884277,508.0
8.242121934890747,525.0
8.246556043624878,497.0
8.250824213027954,527.0
8.255678176879883,515.0
8.26042103767395,524.0
8.26563024520874,524.0
8.269397974014282,523.0
8.273314952850342,518.0
8.280135154724121,518.0
8.284414291381836,518.0
8.288317203521729,517.0
8.293442964553833,499.0
8.298015117645264,516.0
8.305392026901245,498.0
8.310237169265747,513.0
8.314320087432861,519.0
8.321574211120605,510.0
8.32577395439148,508.0
8.329240083694458,512.0
8.335302114486694,517.0
8.340298891067505,513.0
8.344722032546997,510.0
8.348845958709717,514.0
8.353601932525635,515.0
8.359092950820923,514.0
8.363778114318848,519.0
8.36896824836731,500.0
8.373040199279785,519.0
8.379580020904541,529.0
8.384196996688843,521.0
8.388375997543335,532.0
8.39262318611145,540.0
8.396949052810669,534.0
8.401154041290283,537.0
8.405295133590698,531.0
8.409649133682251,528.0
8.413361072540283,523.0
8.417969226837158,525.0
8.422361135482788,525.0
8.427659034729004,521.0
8.435304164886475,522.0
8.443445920944214,517.0
8.44874119758606,516.0
8.45271611213684,514.0
8.457143068313599,483.0
8.461174964904785,509.0
8.465013027191162,501.0
8.471659898757935,498.0
8.475614070892334,496.0
8.479418992996216,492.0
8.485323905944824,489.0
8.490638971328735,500.0
8.494827032089233,499.0
8.499125003814697,505.0
8.503075122833252,513.0
8.507272243499756,525.0
8.511162042617798,504.0
8.514944076538086,524.0
8.521619081497192,531.0
8.52608609199524,537.0
8.529972076416016,522.0
8.533712148666382,533.0
8.538366079330444,539.0
8.543020963668823,542.0
8.54759693145752,513.0
8.554836988449097,531.0
8.559788942337036,525.0
8.563676118850708,513.0
8.568129062652588,502.0
8.572185039520264,499.0
8.576329231262207,492.0
8.579700946807861,483.0
8.584012985229492,483.0
8.588812112808228,476.0
8.593242168426514,473.0
8.597407102584839,458.0
8.604800939559937,486.0
8.609386205673218,494.0
8.613250017166138,499.0
8.617307186126709,495.0
8.621148109436035,480.0
8.625019073486328,494.0
8.629371166229248,501.0
8.635611057281494,493.0
8.640852212905884,463.0
8.644994020462036,492.0
8.651638984680176,490.0
8.656390190124512,491.0
8.663164138793945,492.0
8.667729139328003,493.0
8.671953201293945,493.0
8.676626205444336,508.0
8.6805260181427,490.0
8.684803009033203,497.0
8.68894100189209,498.0
8.693013906478882,511.0
8.696795225143433,511.0
8.701375246047974,516.0
8.7051260471344,517.0
8.709128141403198,485.0
8.712886095046997,509.0
8.718980073928833,505.0
8.723576068878174,474.0
8.730329036712646,497.0
8.734837055206299,488.0
8.738708972930908,491.0
8.742593050003052,487.0
8.746318101882935,494.0
8.750651121139526,494.0
8.754439115524292,491.0
8.760469913482666,484.0
8.764965057373047,496.0
8.771996021270752,504.0
8.775956153869629,519.0
8.7800612449646,528.0
8.78443694114685,541.0
8.788586139678955,549.0
8.792824029922485,548.0
8.79658317565918,530.0
8.802551031112671,516.0
8.807136058807373,508.0
8.812223196029663,489.0
8.81921100616455,489.0
8.82412314414978,486.0
8.828517198562622,461.0
8.832343101501465,489.0
8.83676791191101,489.0
8.843316078186035,498.0
8.848394870758057,501.0
8.854537963867188,510.0
8.859437942504883,511.0
8.86300802230835,520.0
8.869029998779297,515.0
8.873737096786499,493.0
8.877459287643433,518.0
8.881884098052979,521.0
8.888170957565308,518.0
8.893007040023804,515.0
8.896992921829224,519.0
8.900767087936401,511.0
8.905088901519775,505.0
8.910972118377686,499.0
8.918102025985718,499.0
8.922677040100098,471.0
8.929502248764038,497.0
8.935749053955078,490.0
8.940271139144897,492.0
8.946983098983765,496.0
8.950926065444946,500.0
8.955432176589966,501.0
8.959686040878296,498.0
8.96388292312622,502.0
8.968262195587158,483.0
8.972078084945679,488.0
8.976290941238403,523.0
8.9797842502594,532.0
8.983634233474731,525.0
8.98742127418518,522.0
8.993744134902954,505.0
8.998882055282593,507.0
9.003107070922852,508.0
9.00714898109436,496.0
9.01113510131836,496.0
9.015761137008667,494.0
9.019792079925537,496.0
9.023795127868652,505.0
9.03026294708252,492.0
9.034761905670166,488.0
9.038565158843994,492.0
9.044543266296387,491.0
9.048957109451294,496.0
9.053014039993286,504.0
9.05754804611206,504.0
9.061513900756836,505.0
9.065845012664795,512.0
9.069817066192627,516.0
9.07388710975647,522.0
9.077639102935791,516.0
9.081346988677979,514.0
9.088146209716797,517.0
9.092597007751465,510.0
9.096110105514526,521.0
9.102221012115479,516.0
9.107460021972656,519.0
9.111433267593384,520.0
9.115854978561401,526.0
9.11957597732544,518.0
9.123698234558105,517.0
9.12739610671997,514.0
9.13073205947876,518.0
9.137993097305298,519.0
9.144094228744507,524.0
9.148584127426147,524.0
9.155359983444214,522.0
9.159332990646362,509.0
9.163512945175171,520.0
9.168045043945312,517.0
9.171902179718018,507.0
9.176228046417236,509.0
9.180064916610718,488.0
9.18454909324646,512.0
9.18838906288147,519.0
9.19258999824524,502.0
9.196556091308594,526.0
9.200591087341309,519.0
9.204875946044922,529.0
9.209191083908081,527.0
9.213062047958374,534.0
9.217535257339478,537.0
9.221096277236938,535.0
9.225548028945923,535.0
9.2294020652771,530.0
9.235757112503052,528.0
9.24055004119873,518.0
9.244784116744995,516.0
9.248720169067383,504.0
9.25249195098877,505.0
9.25658106803894,494.0
9.26295018196106,497.0
9.269241094589233,499.0
9.273828983306885,496.0
9.27803897857666,497.0
9.281671047210693,496.0
9.28885006904602,498.0
9.292830228805542,502.0
9.29701018333435,507.0
9.30085015296936,507.0
9.304891109466553,503.0
9.30902910232544,506.0
9.313514947891235,501.0
9.318695068359375,507.0
9.3230299949646,505.0
9.329925060272217,502.0
9.334514141082764,494.0
9.33837604522705,505.0
9.342459201812744,503.0
9.347352981567383,504.0
9.352339267730713,503.0
9.357279300689697,508.0
9.36098599433899,506.0
9.365939140319824,498.0
9.370395183563232,500.0
9.377295017242432,489.0
9.382466077804565,487.0
9.38773512840271,481.0
9.392571210861206,485.0
9.397377967834473,476.0
9.401991128921509,481.0
9.40729308128357,467.0
9.412296056747437,483.0
9.41739010810852,482.0
9.4218590259552,477.0
9.426851034164429,468.0
9.431586027145386,471.0
9.439018249511719,463.0
9.44310712814331,474.0
9.447655200958252,482.0
9.454838037490845,509.0
9.458772897720337,530.0
9.462480068206787,539.0
9.468502044677734,539.0
9.47307300567627,538.0
9.477165937423706,524.0
9.480698108673096,531.0
9.484676122665405,524.0
9.488973140716553,530.0
9.493375301361084,522.0
9.497935056686401,515.0
9.504476070404053,506.0
9.510746002197266,498.0
9.515267133712769,488.0
9.52163815498352,479.0
9.525930166244507,486.0
9.529768228530884,478.0
9.533599138259888,480.0
9.53820514678955,481.0
9.542270183563232,487.0
9.546634912490845,491.0
9.55129098892212,501.0
9.555325269699097,483.0
9.559538125991821,512.0
9.563314199447632,519.0
9.567156076431274,523.0
9.570945978164673,522.0
9.57731008529663,520.0
9.581981182098389,524.0
9.586308002471924,518.0
9.590822219848633,515.0
9.594787120819092,511.0
9.59906816482544,509.0
9.602940082550049,488.0
9.607184171676636,516.0
9.611072063446045,512.0
9.615811109542847,495.0
9.619662046432495,506.0
9.624054908752441,481.0
9.629114151000977,495.0
9.63525128364563,494.0
9.64067006111145,492.0
9.644973993301392,490.0
9.648977041244507,483.0
9.653343915939331,484.0
9.657495021820068,487.0
9.661370992660522,492.0
9.665168046951294,485.0
9.67233920097351,488.0
9.677112102508545,501.0
9.68143916130066,492.0
9.68826413154602,526.0
9.692429065704346,540.0
9.696412086486816,539.0
9.700831174850464,544.0
9.70466923713684,513.0
9.710753917694092,512.0
9.7154381275177,500.0
9.719598054885864,487.0
9.723407983779907,473.0
9.730548858642578,467.0
9.734550952911377,464.0
9.738347053527832,452.0
9.742347955703735,470.0
9.74620509147644,477.0
9.750911951065063,463.0
9.754904985427856,491.0
9.759232997894287,499.0
9.762986898422241,495.0
9.767075061798096,496.0
9.771352052688599,498.0
9.778004169464111,498.0
9.785311222076416,486.0
9.789987087249756,482.0
9.796825170516968,479.0
9.800781011581421,476.0
9.805243015289307,471.0
9.809519052505493,475.0
9.813647985458374,478.0
9.818378925323486,475.0
9.822381973266602,478.0
9.82918405532837,478.0
9.83586597442627,482.0
9.840764045715332,486.0
9.84497618675232,487.0
9.848873138427734,493.0
9.853447198867798,496.0
9.860016107559204,500.0
9.864733219146729,499.0
9.871531963348389,507.0
9.875690221786499,512.0
9.879539251327515,509.0
9.886036157608032,506.0
9.893192052841187,508.0
9.898097038269043,504.0
9.90410304069519,492.0
9.910672187805176,485.0
9.914905071258545,484.0
9.920868158340454,477.0
9.92662501335144,468.0
9.931565046310425,464.0
9.93879222869873,469.0
9.943171977996826,471.0
9.946882963180542,479.0
9.951524019241333,458.0
9.955617904663086,481.0
9.960073232650757,479.0
9.963796854019165,476.0
9.967583894729614,475.0
9.972134113311768,471.0
9.976393938064575,479.0
9.980333089828491,503.0
9.984390020370483,522.0
9.988134145736694,539.0
9.992401123046875,540.0
9.996262073516846,530.0
10.00284719467163,511.0
10.009963035583496,500.0
10.0142080783844,491.0
10.021606206893921,454.0
10.025914192199707,448.0
10.029730081558228,471.0
10.033626079559326,470.0
10.037930965423584,473.0
10.042494297027588,477.0
10.046364068984985,476.0
10.051105976104736,483.0
10.054872989654541,470.0
10.059593200683594,493.0
10.063420057296753,499.0
10.069597244262695,502.0
10.074047088623047,482.0
10.078554153442383,507.0
10.08240294456482,507.0
10.08642029762268,512.0
10.090625047683716,513.0
10.094547271728516,518.0
10.098958015441895,514.0
10.103082180023193,518.0
10.10710597038269,509.0
10.111478090286255,509.0
10.115991115570068,511.0
10.120301008224487,508.0
10.126267194747925,502.0
10.131415128707886,505.0
10.138335943222046,505.0
10.143091201782227,506.0
10.147071123123169,508.0
10.151443243026733,505.0
10.155537128448486,484.0
10.159929037094116,506.0
10.163601160049438,510.0
10.167843103408813,506.0
10.171902179718018,515.0
10.175791025161743,517.0
10.180114030838013,519.0
10.184303998947144,519.0
10.188475131988525,519.0
10.194293022155762,522.0
10.199129104614258,514.0
10.203287124633789,512.0
10.207402229309082,494.0
10.211786031723022,510.0
10.215914249420166,505.0
10.219903230667114,496.0
10.22383999824524,488.0
10.228354930877686,490.0
10.235229253768921,491.0
10.240042924880981,480.0
10.246886014938354,479.0
10.251378059387207,492.0
10.255092144012451,497.0
10.259392023086548,513.0
10.263508081436157,517.0
10.267519235610962,527.0
10.271700143814087,531.0
10.2762770652771,526.0
10.280145168304443,529.0
10.284260988235474,523.0
10.287856101989746,517.0
10.293668985366821,515.0
10.297582149505615,505.0
10.304639101028442,498.0
10.308692932128906,491.0
10.312894105911255,478.0
10.31741714477539,472.0
10.321717023849487,472.0
10.325916051864624,446.0
10.329843282699585,468.0
10.334285020828247,471.0
10.338194131851196,477.0
10.344190120697021,467.0
10.348733186721802,487.0
10.356822967529297,499.0
10.360984086990356,511.0
10.364764213562012,511.0
10.372467279434204,506.0
10.379629135131836,506.0
10.384088039398193,497.0
10.387968063354492,486.0
10.392401218414307,476.0
10.39716124534607,462.0
10.402132272720337,458.0
10.406447172164917,456.0
10.413932085037231,453.0
10.418314933776855,463.0
10.422444105148315,458.0
10.429051160812378,465.0
10.43558406829834,470.0
10.440576076507568,475.0
10.444457292556763,486.0
10.448224067687988,490.0
10.455252885818481,486.0
10.460005044937134,471.0
10.464767217636108,490.0
10.471532106399536,483.0
10.476783037185669,514.0
10.480611085891724,514.0
10.484691143035889,519.0
10.488285064697266,524.0
10.492735147476196,511.0
10.497074127197266,505.0
10.501444101333618,491.0
10.505689144134521,481.0
10.510082960128784,472.0
10.514219045639038,473.0
10.521101951599121,477.0
10.527294158935547,504.0
10.531830072402954,496.0
10.53603720664978,497.0
10.539846181869507,498.0
10.546918153762817,491.0
10.551796913146973,487.0
10.55641222000122,478.0
10.563484191894531,475.0
10.567784070968628,480.0
10.571637868881226,490.0
10.575478076934814,501.0
10.579686164855957,516.0
10.585655927658081,529.0
10.59102988243103,538.0
10.595372915267944,544.0
10.601900100708008,530.0
10.606589078903198,535.0
10.613211154937744,529.0
10.617448091506958,512.0
10.621503114700317,508.0
10.627777099609375,493.0
10.632635116577148,489.0
10.636610984802246,465.0
10.64324402809143,482.0
10.648333072662354,482.0
10.655007123947144,489.0
10.65975022315979,498.0
10.663994073867798,496.0
10.66844892501831,503.0
10.672586917877197,511.0
10.679491996765137,517.0
10.685800075531006,497.0
10.690948009490967,518.0
10.695089101791382,498.0
10.699143171310425,509.0
10.703097105026245,492.0
10.70694899559021,508.0
10.71354603767395,503.0
10.717494010925293,511.0
10.72187614440918,511.0
10.726465940475464,500.0
10.730602979660034,512.0
10.734859943389893,514.0
10.738683223724365,492.0
10.74302887916565,513.0
10.746780157089233,513.0
10.751196146011353,517.0
10.755321025848389,517.0
10.759802103042603,516.0
10.763621091842651,517.0
10.767492055892944,506.0
10.77150821685791,520.0
10.775750160217285,495.0
10.779807090759277,512.0
10.78426218032837,510.0
10.78833293914795,504.0
10.792549133300781,504.0
10.796351909637451,511.0
10.800775051116943,511.0
10.804857015609741,513.0
10.808913230895996,524.0
10.81343412399292,523.0
10.8176429271698,523.0
10.821826934814453,522.0
10.826207876205444,518.0
10.830320119857788,512.0
10.834781169891357,499.0
10.838545083999634,482.0
10.842749118804932,468.0
10.846545219421387,467.0
10.850568056106567,465.0
10.854356288909912,450.0
10.860467195510864,457.0
10.865476131439209,500.0
10.872268915176392,505.0
10.876863241195679,500.0
10.880824089050293,527.0
10.887999296188354,536.0
10.892617225646973,544.0
10.896680116653442,568.0
10.900768041610718,582.0
10.9045569896698,584.0
10.910589218139648,580.0
10.91568398475647,565.0
10.91971206665039,548.0
10.924007177352905,532.0
10.927922248840332,520.0
10.932202100753784,484.0
10.936231136322021,505.0
10.940211057662964,504.0
10.946818113327026,496.0
10.951130151748657,477.0
10.95515513420105,506.0
10.959599018096924,518.0
10.963604211807251,512.0
10.967475175857544,528.0
10.971610069274902,506.0
10.976306200027466,491.0
10.980180978775024,508.0
10.984146118164062,505.0
10.987836122512817,503.0
10.992790937423706,512.0
10.996700048446655,510.0
11.000891208648682,517.0
11.006463289260864,521.0
11.013787031173706,504.0
11.018322229385376,510.0
11.023400068283081,520.0
11.030508995056152,520.0
11.034938097000122,519.0
11.038698196411133,517.0
11.042967081069946,528.0
11.046787023544312,538.0
11.052149057388306,539.0
11.055935859680176,544.0
11.063741207122803,556.0
11.068279027938843,529.0
11.073570013046265,521.0
11.080453157424927,511.0
11.084752082824707,476.0
11.088465213775635,500.0
11.093651056289673,496.0
11.0975022315979,495.0
11.105199098587036,492.0
11.109513282775879,499.0
11.113808155059814,500.0
11.118345975875854,499.0
11.123657941818237,501.0
11.128154039382935,504.0
11.135998249053955,505.0
11.141364097595215,504.0
11.145581007003784,506.0
11.150561094284058,478.0
11.154891014099121,494.0
11.159548044204712,495.0
11.163295984268188,498.0
11.167405128479004,501.0
11.172384977340698,503.0
11.17750597000122,507.0
11.185258865356445,506.0
11.189865112304688,500.0
11.196627140045166,498.0
11.20051121711731,495.0
11.204639911651611,499.0
11.211318969726562,499.0
11.2171151638031,491.0
11.220992088317871,492.0
11.227992057800293,478.0
11.23517894744873,499.0
11.239781141281128,499.0
11.24691390991211,502.0
11.251848220825195,500.0
11.255924224853516,507.0
11.263455152511597,503.0
11.267988920211792,498.0
11.27190613746643,496.0
11.27635407447815,504.0
11.28064513206482,508.0
11.285279273986816,513.0
11.289140939712524,518.0
11.296905279159546,522.0
11.301448106765747,514.0
11.305350065231323,511.0
11.309144020080566,515.0
11.313598155975342,510.0
11.317958116531372,513.0
11.322068929672241,505.0
11.327471017837524,501.0
11.331825017929077,503.0
11.339219093322754,505.0
11.346367120742798,500.0
11.350943088531494,502.0
11.355201005935669,498.0
11.359575986862183,502.0
11.363752126693726,511.0
11.368694067001343,511.0
11.37301230430603,518.0
11.37999415397644,530.0
11.384567975997925,536.0
11.388818264007568,547.0
11.393733024597168,529.0
11.397450923919678,548.0
11.40541410446167,537.0
11.410154104232788,510.0
11.4147629737854,518.0
11.421698093414307,484.0
11.426015853881836,503.0
11.429546117782593,479.0
11.436052083969116,495.0
11.441015005111694,489.0
11.445645093917847,494.0
11.452952146530151,492.0
11.460771083831787,495.0
11.465996026992798,493.0
11.470102071762085,489.0
11.4739408493042,484.0
11.47863507270813,481.0
11.485864162445068,479.0
11.493313074111938,476.0
11.498536109924316,479.0
11.502851009368896,488.0
11.50717830657959,465.0
11.511509895324707,495.0
11.515586137771606,500.0
11.520295143127441,501.0
11.527231216430664,501.0
11.53254222869873,510.0
11.537173986434937,514.0
11.54442811012268,530.0
11.551977157592773,570.0
11.55692720413208,579.0
11.56101393699646,569.0
11.564856052398682,552.0
11.568997144699097,531.0
11.572625160217285,509.0
11.580246925354004,492.0
11.5853111743927,476.0
11.589948177337646,469.0
11.597609281539917,470.0
11.60541820526123,460.0
11.609947204589844,461.0
11.613831043243408,442.0
11.618330001831055,465.0
11.622587203979492,477.0
11.63002896308899,484.0
11.634098052978516,489.0
11.637634038925171,487.0
11.644690036773682,491.0
11.651906967163086,492.0
11.656643152236938,503.0
11.663424015045166,512.0
11.668437957763672,515.0
11.672166109085083,519.0
11.676662921905518,525.0
11.680640935897827,523.0
11.685228109359741,519.0
11.688988208770752,512.0
11.696562051773071,514.0
11.7010018825531,509.0
11.704774141311646,510.0
11.711374044418335,520.0
11.718945026397705,537.0
11.723971128463745,555.0
11.728628873825073,541.0
11.735296964645386,541.0
11.740467071533203,532.0
11.744592189788818,531.0
11.749106168746948,513.0
11.752865076065063,515.0
11.756798267364502,508.0
11.763225078582764,517.0
11.7677321434021,498.0
11.771570205688477,519.0
11.778615951538086,512.0
11.785923957824707,521.0
11.793428182601929,525.0
11.798164129257202,531.0
11.804999113082886,530.0
11.809752941131592,522.0
11.813645124435425,531.0
11.817615985870361,535.0
11.82224702835083,531.0
11.827078104019165,534.0
11.831691980361938,538.0
11.838698863983154,535.0
11.842950105667114,532.0
11.846699953079224,541.0
11.851097106933594,538.0
11.854954957962036,535.0
11.859130144119263,537.0
11.863109111785889,540.0
11.867088079452515,538.0
11.871219158172607,538.0
11.875658988952637,535.0
11.879698038101196,532.0
11.884106874465942,537.0
11.887819051742554,532.0
11.892361879348755,534.0
11.896026134490967,538.0
11.902230978012085,514.0
11.906605005264282,529.0
11.912829160690308,530.0
11.919434070587158,528.0
11.927364110946655,528.0
11.931968927383423,524.0
11.939146041870117,521.0
11.946183204650879,525.0
11.95226788520813,517.0
11.957421064376831,516.0
11.961145162582397,520.0
11.96500301361084,516.0
11.971546173095703,515.0
11.976240158081055,512.0
11.980298042297363,514.0
11.984572172164917,484.0
11.988326072692871,494.0
11.994626998901367,511.0
12.002111911773682,510.0
12.007398128509521,521.0
12.011667251586914,522.0
12.015505075454712,530.0
12.01957106590271,530.0
12.023437976837158,515.0
12.030422925949097,527.0
12.035566091537476,526.0
12.039931058883667,529.0
12.04801607131958,530.0
12.05494999885559,536.0
12.059064149856567,509.0
12.062798976898193,524.0
12.069536924362183,517.0
12.077343225479126,516.0
12.081966161727905,513.0
12.089739084243774,508.0
12.096954107284546,504.0
12.101034879684448,494.0
12.105201005935669,493.0
12.110429048538208,494.0
12.114658117294312,491.0
12.121908187866211,477.0
12.126769065856934,497.0
12.131420135498047,508.0
12.138400077819824,511.0
12.142812013626099,519.0
12.14695692062378,525.0
12.150729894638062,524.0
12.154495239257812,522.0
12.159287929534912,523.0
12.163323163986206,523.0
12.167788028717041,527.0
12.171735048294067,518.0
12.175827264785767,517.0
12.180148124694824,511.0
12.184702157974243,506.0
12.18913197517395,478.0
12.19701600074768,477.0
12.20115613937378,503.0
12.204625129699707,496.0
12.21101999282837,500.0
12.215448141098022,489.0
12.219155073165894,485.0
12.222588062286377,485.0
12.230086088180542,483.0
12.234095096588135,458.0
12.238323211669922,484.0
12.242566108703613,490.0
12.246653079986572,509.0
12.25100302696228,497.0
12.254733085632324,530.0
12.259412288665771,530.0
12.263493061065674,525.0
12.267603158950806,520.0
12.271427154541016,519.0
12.279038190841675,498.0
12.284614086151123,499.0
12.288573265075684,498.0
12.29250192642212,491.0
12.297091960906982,493.0
12.302250146865845,497.0
12.306664228439331,491.0
12.314072132110596,487.0
12.322060108184814,486.0
12.326980113983154,483.0
12.331443071365356,475.0
12.338731050491333,456.0
12.343345165252686,481.0
12.347857236862183,483.0
12.351868152618408,492.0
12.355502128601074,498.0
12.360086917877197,502.0
12.363806247711182,512.0
12.36875319480896,498.0
12.372399091720581,503.0
12.38042688369751,500.0
12.38480806350708,495.0
12.389281988143921,492.0
12.397079944610596,492.0
12.401752948760986,514.0
12.405864238739014,521.0
12.41351318359375,528.0
12.418029069900513,524.0
12.421585083007812,518.0
12.427989959716797,517.0
12.432347059249878,511.0
12.43616008758545,507.0
12.440521955490112,509.0
12.444529056549072,495.0
12.448941946029663,493.0
12.453419923782349,488.0
12.46025800704956,484.0
12.464895248413086,475.0
12.472525119781494,475.0
12.479732990264893,458.0
12.48447299003601,463.0
12.488381147384644,487.0
12.493136167526245,501.0
12.496674060821533,501.0
12.501818180084229,506.0
12.505820035934448,513.0
12.512709140777588,511.0
12.519232034683228,514.0
12.52431607246399,500.0
12.528374910354614,517.0
12.535722255706787,525.0
12.540332078933716,535.0
12.544369220733643,536.0
12.548156023025513,537.0
12.55506706237793,533.0
12.559808015823364,520.0
12.563863039016724,513.0
12.568380117416382,497.0
12.57222318649292,513.0
12.576966047286987,510.0
12.580690145492554,514.0
12.585460901260376,521.0
12.589226245880127,520.0
12.596976041793823,510.0
12.601773977279663,503.0
12.606529951095581,478.0
12.613866329193115,495.0
12.617979049682617,496.0
12.621703147888184,492.0
12.626473188400269,490.0
12.630277156829834,490.0
12.634520053863525,489.0
12.638699054718018,487.0
12.643229246139526,493.0
12.647176265716553,490.0
12.653714179992676,491.0
12.658793210983276,497.0
12.66277813911438,501.0
12.669193267822266,495.0
12.67679214477539,497.0
12.681504011154175,475.0
12.68758487701416,491.0
12.69210410118103,492.0
12.695939064025879,477.0
12.702476978302002,486.0
12.70730209350586,486.0
12.711440086364746,480.0
12.718010187149048,473.0
12.722609043121338,471.0
12.729055166244507,466.0
12.735449075698853,452.0
12.739748001098633,448.0
12.746190071105957,451.0
12.750304937362671,458.0
12.753994941711426,474.0
12.76012110710144,482.0
12.765148162841797,494.0
12.771834135055542,502.0
12.776119947433472,506.0
12.780152082443237,502.0
12.78490686416626,509.0
12.788776159286499,517.0
12.792980909347534,530.0
12.796752214431763,538.0
12.801100969314575,534.0
12.80482029914856,537.0
12.80863618850708,531.0
12.813149213790894,519.0
12.817729949951172,502.0
12.822019100189209,487.0
12.826050996780396,453.0
12.829857110977173,447.0
12.834214210510254,452.0
12.837983131408691,452.0
12.842550039291382,464.0
12.846488952636719,466.0
12.852674961090088,469.0
12.857197999954224,470.0
12.861178159713745,481.0
12.864967107772827,489.0
12.871867179870605,493.0
12.87621808052063,466.0
12.880239009857178,497.0
12.884886026382446,497.0
12.888766288757324,497.0
12.893110990524292,496.0
12.896628856658936,488.0
12.900547981262207,494.0
12.90426516532898,494.0
12.910242080688477,493.0
12.915422201156616,489.0
12.919678211212158,495.0
12.923454284667969,501.0
12.92961311340332,498.0
12.935569047927856,503.0
12.940680265426636,505.0
12.944643020629883,507.0
12.948347091674805,492.0
12.955483198165894,524.0
12.960174083709717,534.0
12.964272022247314,560.0
12.97126317024231,575.0
12.9760422706604,584.0
12.980013132095337,553.0
12.984055995941162,560.0
12.987775087356567,544.0
12.994011163711548,523.0
12.99852728843689,501.0
13.005831241607666,476.0
13.013134956359863,462.0
13.01778507232666,451.0
13.021693229675293,449.0
13.025562047958374,449.0
13.03009819984436,456.0
13.03447413444519,468.0
13.038662195205688,474.0
13.042534112930298,483.0
13.046472072601318,485.0
13.051119089126587,489.0
13.055160999298096,491.0
13.059453248977661,498.0
13.06325387954712,496.0
13.06934118270874,496.0
13.073855876922607,469.0
13.077737092971802,496.0
13.08220624923706,500.0
13.086194038391113,500.0
13.090816020965576,502.0
13.094853162765503,500.0
13.099002122879028,501.0
13.10279107093811,499.0
13.106564998626709,503.0
13.113684892654419,504.0
13.118190050125122,501.0
13.12249207496643,497.0
13.129615068435669,500.0
13.133917093276978,505.0
13.137881994247437,505.0
13.143960952758789,506.0
13.148574113845825,506.0
13.155039310455322,510.0
13.161342144012451,512.0
13.16790223121643,508.0
13.17252802848816,505.0
13.17934513092041,508.0
13.186078071594238,497.0
13.19096326828003,499.0
13.194821119308472,495.0
13.198498964309692,491.0
13.204983949661255,483.0
13.209392070770264,480.0
13.213385105133057,482.0
13.21773099899292,487.0
13.221771001815796,479.0
13.226004123687744,488.0
13.230043172836304,487.0
13.234390020370483,489.0
13.237994909286499,497.0
13.242557048797607,504.0
13.246164083480835,512.0
13.252315044403076,517.0
13.25660514831543,490.0
13.26365613937378,514.0
13.267904043197632,523.0
13.272355079650879,526.0
13.27920413017273,538.0
13.283735036849976,547.0
13.287700176239014,545.0
13.292425870895386,544.0
13.296357154846191,534.0
13.302655220031738,526.0
13.307183027267456,524.0
13.311269998550415,505.0
13.315128087997437,505.0
13.322065114974976,492.0
13.326220035552979,468.0
13.330290079116821,468.0
13.33448600769043,482.0
13.338268041610718,485.0
13.342870950698853,489.0
13.346778154373169,487.0
13.350665092468262,484.0
13.354367971420288,487.0
13.360610008239746,498.0
13.365698099136353,497.0
13.369781970977783,501.0
13.374163150787354,511.0
13.378232955932617,520.0
13.384828090667725,521.0
13.389770984649658,524.0
13.396454095840454,528.0
13.400599956512451,523.0
13.40441107749939,518.0
13.410590171813965,513.0
13.41582989692688,492.0
13.420099973678589,489.0
13.426562070846558,487.0
13.43135404586792,463.0
13.437893152236938,474.0
13.44451117515564,472.0
13.451519966125488,472.0
13.455835103988647,470.0
13.46282696723938,472.0
13.469000101089478,473.0
13.474281072616577,474.0
13.478442907333374,476.0
13.482192039489746,482.0
13.486538887023926,485.0
13.49089002609253,489.0
13.49528694152832,495.0
13.501343250274658,504.0
13.506422996520996,514.0
13.513238906860352,514.0
13.51737904548645,512.0
13.520862102508545,524.0
13.526773929595947,507.0
13.53059196472168,498.0
13.534661054611206,490.0
13.538833141326904,483.0
13.543412923812866,480.0
13.547325134277344,477.0
13.551846027374268,481.0
13.556237936019897,482.0
13.562994241714478,489.0
13.567584037780762,496.0
13.571495056152344,506.0
13.57571291923523,512.0
13.57942795753479,514.0
13.585711002349854,518.0
13.590314149856567,512.0
13.594823122024536,512.0
13.601748943328857,510.0
13.606868267059326,515.0
13.613440036773682,510.0
13.617793083190918,487.0
13.62153697013855,497.0
13.627684116363525,503.0
13.632261037826538,508.0
13.636297941207886,504.0
13.640108108520508,486.0
13.644084930419922,490.0
13.648287296295166,513.0
13.654935121536255,490.0
13.659471035003662,519.0
13.663337230682373,520.0
13.667826175689697,525.0
13.671570062637329,535.0
13.675519943237305,532.0
13.67933988571167,536.0
13.685583114624023,535.0
13.690750122070312,540.0
13.694617986679077,537.0
13.698307037353516,537.0
13.704852104187012,527.0
13.708754062652588,528.0
13.712989091873169,523.0
13.717668056488037,522.0
13.72162413597107,518.0
13.728062152862549,518.0
13.734640121459961,518.0
13.73875904083252,503.0
13.743826150894165,521.0
13.747964143753052,517.0
13.755765914916992,518.0
13.763489007949829,515.0
13.767874002456665,518.0
13.772022008895874,513.0
13.778979063034058,516.0
13.786201000213623,515.0
13.794153213500977,516.0
13.799248218536377,506.0
13.803666114807129,524.0
13.810595035552979,517.0
13.815444231033325,506.0
13.820186138153076,494.0
13.827463150024414,500.0
13.832473993301392,514.0
13.837210178375244,498.0
13.844223976135254,515.0
13.849147081375122,515.0
13.853811264038086,510.0
13.86065411567688,508.0
13.865222215652466,509.0
13.873443126678467,507.0
13.87762188911438,508.0
13.881437063217163,502.0
13.888915061950684,503.0
13.894347906112671,495.0
13.898634910583496,471.0
13.905986070632935,493.0
13.913439989089966,494.0
13.918095111846924,495.0
13.921678066253662,495.0
13.925610303878784,498.0
13.929312944412231,505.0
13.935900211334229,483.0
13.943854093551636,501.0
13.948975086212158,501.0
13.952991247177124,506.0
13.956936120986938,496.0
13.96091890335083,524.0
13.964702129364014,525.0
13.972125053405762,523.0
13.976831912994385,514.0
13.98139214515686,490.0
13.988604068756104,505.0
13.992805004119873,501.0
13.996891021728516,498.0
14.001462936401367,512.0
14.005215883255005,517.0
14.009619235992432,524.0
14.013448238372803,525.0
14.017417907714844,528.0
14.021158218383789,524.0
14.028034925460815,538.0
14.035246133804321,521.0
14.039964199066162,517.0
14.046812057495117,503.0
14.051576137542725,466.0
14.05587911605835,483.0
14.063327312469482,482.0
14.067527055740356,458.0
14.071890115737915,492.0
14.07663607597351,492.0
14.080389022827148,487.0
14.085001230239868,499.0
14.088772058486938,506.0
14.093456029891968,513.0
14.097053050994873,497.0
14.101474046707153,513.0
14.105791091918945,514.0
14.113086223602295,511.0
14.117720127105713,511.0
14.121947050094604,513.0
14.126309156417847,507.0
14.129961252212524,513.0
14.134516954421997,516.0
14.138221979141235,487.0
14.142473220825195,512.0
14.146003246307373,525.0
14.151884078979492,514.0
14.15576696395874,486.0
14.16246223449707,508.0
14.169379949569702,504.0
14.17638897895813,497.0
14.180682897567749,505.0
14.187736988067627,502.0
14.19443130493164,505.0
14.202068090438843,497.0
14.206521987915039,493.0
14.213277101516724,491.0
14.217355012893677,479.0
14.221826076507568,475.0
14.226591110229492,475.0
14.230432987213135,469.0
14.235050916671753,480.0
14.238725185394287,479.0
14.243360996246338,485.0
14.247096061706543,480.0
14.251553058624268,479.0
14.25539493560791,483.0
14.259360074996948,495.0
14.263773202896118,503.0
14.267790079116821,511.0
14.272077083587646,523.0
14.276822090148926,534.0
14.281239986419678,530.0
14.288336038589478,503.0
14.293018102645874,517.0
14.296900033950806,514.0
14.301357984542847,512.0
14.305612087249756,502.0
14.310154914855957,487.0
14.314727067947388,490.0
14.322012186050415,484.0
14.326367855072021,486.0
14.330198049545288,482.0
14.33462905883789,481.0
14.338342189788818,482.0
14.342761278152466,493.0
14.346564054489136,494.0
14.350403070449829,492.0
14.354154109954834,499.0
14.360092163085938,505.0
14.364974975585938,511.0
14.371351957321167,506.0
14.375625848770142,509.0
14.379484176635742,508.0
14.385857105255127,510.0
14.393493890762329,513.0
14.398808002471924,516.0
14.40279221534729,513.0
14.40712308883667,511.0
14.411295890808105,508.0
14.415364980697632,515.0
14.419264078140259,504.0
14.423029899597168,507.0
14.429639101028442,511.0
14.43361210823059,510.0
14.438063144683838,486.0
14.442079305648804,512.0
14.446107149124146,497.0
14.450469017028809,528.0
14.454214096069336,510.0
14.46057915687561,489.0
14.465260982513428,494.0
14.469513893127441,507.0
14.473236083984375,499.0
14.479814052581787,500.0
14.483721256256104,502.0
14.488016128540039,508.0
14.492908000946045,511.0
14.497090101242065,511.0
14.501360177993774,518.0
14.505146026611328,520.0
14.509631872177124,515.0
14.513448238372803,515.0
14.517369031906128,512.0
14.5211660861969,510.0
14.527384042739868,504.0
14.532020092010498,495.0
14.535820007324219,485.0
14.540079116821289,469.0
14.546815156936646,445.0
14.551562070846558,437.0
14.555370092391968,462.0
14.559416055679321,468.0
14.563133239746094,472.0
14.567245960235596,467.0
14.570793151855469,478.0
14.576679229736328,464.0
14.581732034683228,502.0
14.588129043579102,511.0
14.59227204322815,527.0
14.595805168151855,536.0
14.602356195449829,539.0
14.60676121711731,542.0
14.613379955291748,505.0
14.617993116378784,511.0
14.621655941009521,498.0
14.625622987747192,483.0
14.629796028137207,478.0
14.63386607170105,456.0
14.637603044509888,471.0
14.643699169158936,483.0
14.648344039916992,480.0
14.654515266418457,458.0
14.659155130386353,470.0
14.66268014907837,477.0
14.667291164398193,487.0
14.672378063201904,477.0
14.679672956466675,484.0
14.683953046798706,474.0
14.687434911727905,482.0
14.69148302078247,473.0
14.695634126663208,483.0
14.701524257659912,480.0
14.705812931060791,483.0
14.712909936904907,485.0
14.717043161392212,487.0
14.720546007156372,491.0
14.726706266403198,495.0
14.730623960494995,488.0
14.7347571849823,489.0
14.738222122192383,490.0
14.744166135787964,486.0
14.74889326095581,493.0
14.75267505645752,505.0
14.756798267364502,503.0
14.762943983078003,495.0
14.767738103866577,475.0
14.771799087524414,462.0
14.775673151016235,465.0
14.780034065246582,476.0
14.783843040466309,483.0
14.787991046905518,516.0
14.792098999023438,531.0
14.795890092849731,538.0
14.800394058227539,534.0
14.804091215133667,516.0
14.810532093048096,505.0
14.81515908241272,487.0
14.821774005889893,471.0
14.825721979141235,461.0
14.830053091049194,456.0
14.83407998085022,454.0
14.838207960128784,449.0
14.842162132263184,450.0
14.846511125564575,442.0
14.85181212425232,442.0
14.856443166732788,444.0
14.864018201828003,440.0
14.871215105056763,434.0
14.877305030822754,460.0
14.882589101791382,480.0
14.886734008789062,500.0
14.893019199371338,519.0
14.897571086883545,527.0
14.904559135437012,525.0
14.908730030059814,520.0
14.912634134292603,510.0
14.918966054916382,505.0
14.924109935760498,491.0
14.928469896316528,460.0
14.932283163070679,480.0
14.93599820137024,474.0
14.940366983413696,476.0
14.944722175598145,481.0
14.948909997940063,484.0
14.952874183654785,486.0
14.956829071044922,488.0
14.961431980133057,483.0
14.965753078460693,488.0
14.970150232315063,486.0
14.976808071136475,491.0
14.982006072998047,490.0
14.985977172851562,496.0
14.990046262741089,487.0
14.993927240371704,496.0
14.997812271118164,490.0
15.00475001335144,502.0
15.009485960006714,501.0
15.01361608505249,511.0
15.017863035202026,510.0
15.021941900253296,507.0
15.025818109512329,499.0
15.029495000839233,503.0
15.03382396697998,499.0
15.037661075592041,494.0
15.04399299621582,499.0
15.048549175262451,503.0
15.055071115493774,504.0
15.059041976928711,507.0
15.063496112823486,491.0
15.067806243896484,507.0
15.071990966796875,508.0
15.076584100723267,513.0
15.080213069915771,491.0
15.084837198257446,530.0
15.088614225387573,529.0
15.093053102493286,533.0
15.096861124038696,530.0
15.100784063339233,522.0
15.104525089263916,526.0
15.10843300819397,523.0
15.112678050994873,519.0
15.118954181671143,521.0
15.123902082443237,520.0
15.130599021911621,496.0
15.135004043579102,487.0
15.138513088226318,482.0
15.143012046813965,473.0
15.147026062011719,472.0
15.151085138320923,465.0
15.155249118804932,469.0
15.159786224365234,478.0
15.163910150527954,488.0
15.168377161026001,487.0
15.173165082931519,487.0
15.180274248123169,494.0
15.184989213943481,492.0
15.188558101654053,496.0
15.192939043045044,499.0
15.196716070175171,511.0
15.201240062713623,524.0
15.205125093460083,526.0
15.209189176559448,529.0
15.213504076004028,513.0
15.217956066131592,508.0
15.222452163696289,473.0
15.229859113693237,483.0
15.234685182571411,471.0
15.238739252090454,473.0
15.243184089660645,473.0
15.246996879577637,454.0
15.251152038574219,480.0
15.25582504272461,487.0
15.263415098190308,489.0
15.268440961837769,491.0
15.272414207458496,495.0
15.279668092727661,492.0
15.286165952682495,497.0
15.290656089782715,491.0
15.2951819896698,492.0
15.302719116210938,488.0
15.310462236404419,484.0
15.315132141113281,475.0
15.32150387763977,472.0
15.32576608657837,465.0
15.329214096069336,467.0
15.335804224014282,476.0
15.34018611907959,486.0
15.345264196395874,493.0
15.352190256118774,504.0
15.357299089431763,515.0
15.361418962478638,523.0
15.365247249603271,528.0
15.373388051986694,518.0
15.380402088165283,510.0
15.384428977966309,525.0
15.388220071792603,521.0
15.39293622970581,512.0
15.396687030792236,512.0
15.401366949081421,511.0
15.405586242675781,515.0
15.410406112670898,519.0
15.414821147918701,494.0
15.42234206199646,501.0
15.429526090621948,506.0
15.43617296218872,526.0
15.44058895111084,527.0
15.444948196411133,528.0
15.452159881591797,500.0
15.45712924003601,528.0
15.46122694015503,531.0
15.465370178222656,529.0
15.469356060028076,530.0
15.473308086395264,532.0
15.480621099472046,535.0
15.485044240951538,538.0
15.488777160644531,537.0
15.492757081985474,536.0
15.497361183166504,537.0
15.504915237426758,545.0
15.509296178817749,544.0
15.512984991073608,514.0
15.51723313331604,534.0
15.521068096160889,545.0
15.527519226074219,548.0
15.532178163528442,551.0
15.536170959472656,552.0
15.539890050888062,547.0
15.547115087509155,550.0
15.551462173461914,556.0
15.55625605583191,547.0
15.563825130462646,547.0
15.568486213684082,539.0
15.572188138961792,537.0
15.576924085617065,530.0
15.580637216567993,538.0
15.585249900817871,530.0
15.589715242385864,529.0
15.597333908081055,527.0
15.604896068572998,525.0
15.609219074249268,527.0
15.613065958023071,528.0
15.617676973342896,527.0
15.621167182922363,523.0
15.627532005310059,521.0
15.631794214248657,518.0
15.635984182357788,518.0
15.63998007774353,512.0
15.647024154663086,515.0
15.651764154434204,515.0
15.655887126922607,521.0
15.663057088851929,522.0
15.66747522354126,522.0
15.67100214958191,524.0
15.6770601272583,527.0
15.681578159332275,531.0
15.688292980194092,529.0
15.692492961883545,530.0
15.696717023849487,524.0
15.701087951660156,525.0
15.705153942108154,518.0
15.709892988204956,512.0
15.713765144348145,511.0
15.718375205993652,490.0
15.7222580909729,503.0
15.72645902633667,505.0
15.730204105377197,506.0
15.734024047851562,506.0
15.738449096679688,511.0
15.742295026779175,510.0
15.7465660572052,512.0
15.750919103622437,512.0
15.754796028137207,513.0
15.759725093841553,514.0
15.763805150985718,525.0
15.76842212677002,540.0
15.772207021713257,545.0
15.777178049087524,544.0
15.78171420097351,537.0
15.789607048034668,509.0
15.796999216079712,523.0
15.801375150680542,519.0
15.805428266525269,498.0
15.810128211975098,518.0
15.813812971115112,523.0
15.81839108467102,526.0
15.822076082229614,525.0
15.826334238052368,525.0
15.830549955368042,528.0
15.835581064224243,518.0
15.840065002441406,518.0
15.844638109207153,528.0
15.849271059036255,519.0
15.853690147399902,523.0
15.86050820350647,520.0
15.865066289901733,520.0
15.869790077209473,517.0
15.873535871505737,523.0
15.877532243728638,508.0
15.881356000900269,506.0
15.88972806930542,522.0
15.894618034362793,531.0
15.899035215377808,531.0
15.903157949447632,531.0
15.907249212265015,493.0
15.911350965499878,528.0
15.915071249008179,528.0
15.9221670627594,518.0
15.926766157150269,522.0
15.93045711517334,512.0
15.934853076934814,509.0
15.938908100128174,507.0
15.942836284637451,506.0
15.946804285049438,499.0
15.951630115509033,499.0
15.955411195755005,501.0
15.960257053375244,507.0
15.964002132415771,490.0
15.968654155731201,505.0
15.97307801246643,481.0
15.980348110198975,502.0
15.985222101211548,505.0
15.989020109176636,500.0
15.996422052383423,501.0
16.001801252365112,503.0
16.00552225112915,509.0
16.010651111602783,510.0
16.01525902748108,513.0
16.019504070281982,511.0
16.023897171020508,514.0
16.028332948684692,509.0
16.035526037216187,482.0
16.040852308273315,499.0
16.045290231704712,475.0
16.052133083343506,491.0
16.056833028793335,491.0
16.061630249023438,490.0
16.065428972244263,487.0
16.07256007194519,491.0
16.080040216445923,485.0
16.084432125091553,488.0
16.088726043701172,486.0
16.09345507621765,456.0
16.097311973571777,475.0
16.10471796989441,483.0
16.10919499397278,491.0
16.113031148910522,460.0
16.11692523956299,501.0
16.12128520011902,511.0
16.12546706199646,508.0
16.129796981811523,510.0
16.134793281555176,516.0
16.138780117034912,519.0
16.143124103546143,512.0
16.14677906036377,515.0
16.15112805366516,504.0
16.154964208602905,497.0
16.15977907180786,508.0
16.16397523880005,500.0
16.16922426223755,506.0
16.1733660697937,504.0
16.180678129196167,495.0
16.188385009765625,497.0
16.193161249160767,496.0
16.196903228759766,489.0
16.201070070266724,467.0
16.205395221710205,490.0
16.209908962249756,484.0
16.214182138442993,500.0
16.221986055374146,481.0
16.226888179779053,505.0
16.23069405555725,500.0
16.23858618736267,508.0
16.242937088012695,515.0
16.247215032577515,526.0
16.25215721130371,532.0
16.256802082061768,553.0
16.260958194732666,552.0
16.26545023918152,558.0
16.269603967666626,546.0
16.273980140686035,546.0
16.27835202217102,520.0
16.281955003738403,515.0
16.28675603866577,499.0
16.293503999710083,492.0
16.297908306121826,486.0
16.304749011993408,485.0
16.309842109680176,494.0
16.314045190811157,489.0
16.321946144104004,501.0
16.326943159103394,493.0
16.331380128860474,496.0
16.338086128234863,500.0
16.344751119613647,487.0
16.350236177444458,505.0
16.353936195373535,480.0
16.360581159591675,504.0
16.365081071853638,505.0
16.37204599380493,510.0
16.376426219940186,507.0
16.380648136138916,503.0
16.388320922851562,504.0
16.393211126327515,506.0
16.397160053253174,505.0
16.401841163635254,506.0
16.40568208694458,492.0
16.413464069366455,509.0
16.418113946914673,501.0
16.422199010849,506.0
16.426305055618286,498.0
16.430460214614868,495.0
16.435211896896362,495.0
16.43921208381653,494.0
16.44680428504944,490.0
16.451154232025146,491.0
16.454987049102783,497.0
16.458791255950928,490.0
16.463187217712402,496.0
16.46768307685852,494.0
16.472053050994873,498.0
16.476803064346313,509.0
16.480595111846924,510.0
16.484958171844482,514.0
16.488797187805176,522.0
16.49336314201355,522.0
16.49711298942566,517.0
16.50160312652588,514.0
16.505840063095093,495.0
16.51391911506653,507.0
16.51922106742859,507.0
16.523869037628174,502.0
16.528101205825806,506.0
16.53211522102356,509.0
16.536503076553345,504.0
16.543801069259644,490.0
16.548458099365234,481.0
16.555115938186646,472.0
16.559444904327393,464.0
16.56361222267151,459.0
16.568150997161865,468.0
16.572219133377075,473.0
16.57643413543701,473.0
16.58033514022827,489.0
16.58495807647705,495.0
16.58877420425415,502.0
16.59347915649414,490.0
16.597262144088745,471.0
16.60186529159546,504.0
16.605597257614136,524.0
16.609636068344116,538.0
16.61409616470337,541.0
16.622111320495605,532.0
16.626616954803467,513.0
16.630330085754395,493.0
16.63414692878723,494.0
16.637904167175293,473.0
16.641870975494385,469.0
16.645677089691162,462.0
16.652488231658936,464.0
16.657727241516113,456.0
16.662482261657715,454.0
16.669596195220947,456.0
16.677292108535767,461.0
16.682130098342896,469.0
16.686211109161377,472.0
16.69022512435913,478.0
16.69425106048584,476.0
16.69799494743347,477.0
16.70486330986023,471.0
16.709550142288208,469.0
16.713792085647583,472.0
16.718400955200195,476.0
16.72312593460083,475.0
16.72749400138855,482.0
16.731794118881226,491.0
16.736125230789185,495.0
16.740195989608765,499.0
16.746889114379883,504.0
16.751893043518066,508.0
16.756514072418213,504.0
16.76340913772583,488.0
16.767498016357422,455.0
16.771793127059937,472.0
16.776466131210327,476.0
16.780622959136963,483.0
16.787902116775513,480.0
16.792320013046265,478.0
16.795907974243164,475.0
16.80024003982544,472.0
16.804197072982788,462.0
16.81055521965027,437.0
16.81586503982544,458.0
16.81979513168335,428.0
16.82719612121582,450.0
16.83201313018799,459.0
16.838243007659912,479.0
16.842457056045532,501.0
16.846118211746216,521.0
16.852694988250732,535.0
16.85714101791382,526.0
16.861699104309082,527.0
16.86548113822937,513.0
16.86939311027527,507.0
16.873704195022583,502.0
16.877805948257446,502.0
16.882251024246216,502.0
16.887293100357056,510.0
16.894606113433838,514.0
16.901807069778442,512.0
16.90647602081299,510.0
16.913331270217896,516.0
16.91835308074951,513.0
16.92226505279541,511.0
16.929367065429688,515.0
16.933961868286133,516.0
16.937414169311523,508.0
16.943882942199707,518.0
16.94830894470215,525.0
16.955811977386475,528.0
16.96307921409607,526.0
16.967200994491577,530.0
16.971211910247803,528.0
16.975723028182983,527.0
16.979273080825806,503.0
16.985760927200317,532.0
16.991225004196167,531.0
16.995939016342163,527.0
17.002349138259888,531.0
17.010362148284912,530.0
17.015769004821777,534.0
17.020113229751587,531.0
17.02738618850708,520.0
17.03259515762329,538.0
17.037182092666626,540.0
17.0436270236969,538.0
17.048798084259033,530.0
17.05335307121277,526.0
17.05994415283203,525.0
17.064918994903564,517.0
17.071959972381592,521.0
17.0765118598938,512.0
17.080063104629517,514.0
17.084266901016235,517.0
17.088081121444702,519.0
17.092093229293823,523.0
17.09637713432312,517.0
17.100255966186523,523.0
17.104596853256226,514.0
17.109211206436157,514.0
17.113351106643677,514.0
17.11815118789673,516.0
17.12211513519287,517.0
17.126646041870117,504.0
17.130154132843018,514.0
17.134162187576294,518.0
17.137814044952393,515.0
17.141598224639893,523.0
17.14538311958313,518.0
17.151257038116455,510.0
17.15644097328186,504.0
17.16337013244629,503.0
17.16822385787964,492.0
17.17206311225891,487.0
17.17590022087097,477.0
17.17967987060547,476.0
17.18564009666443,467.0
17.190054178237915,464.0
17.194287061691284,464.0
17.198814153671265,473.0
17.202802181243896,466.0
17.207560062408447,470.0
17.21167826652527,451.0
17.218057870864868,478.0
17.22237515449524,478.0
17.229725122451782,492.0
17.234164237976074,509.0
17.238333225250244,526.0
17.242305040359497,538.0
17.24657702445984,575.0
17.251418113708496,583.0
17.25529408454895,565.0
17.25918197631836,566.0
17.2629611492157,544.0
17.267439126968384,512.0
17.270918130874634,463.0
17.277065992355347,460.0
17.28212594985962,428.0
17.28687310218811,443.0
17.292930126190186,434.0
17.298006057739258,420.0
17.305041074752808,460.0
17.309406280517578,462.0
17.31287431716919,446.0
17.317100048065186,475.0
17.32063913345337,485.0
17.32641911506653,485.0
17.330331087112427,485.0
17.334223985671997,489.0
17.338701009750366,488.0
17.342894077301025,487.0
17.347185134887695,495.0
17.351382970809937,494.0
17.35510015487671,492.0
17.359464168548584,499.0
17.36328411102295,502.0
17.36754012107849,501.0
17.37132716178894,488.0
17.377340078353882,502.0
17.381831169128418,506.0
17.38898015022278,508.0
17.396440029144287,510.0
17.40082097053528,502.0
17.404699087142944,503.0
17.409382104873657,495.0
17.41313910484314,499.0
17.417234182357788,505.0
17.421056985855103,520.0
17.424938917160034,523.0
17.429471254348755,516.0
17.435952186584473,511.0
17.44329595565796,507.0
17.448375940322876,503.0
17.454800128936768,507.0
17.460889101028442,504.0
17.46555519104004,477.0
17.470075130462646,498.0
17.476648092269897,496.0
17.481751918792725,488.0
17.489158153533936,481.0
17.496817111968994,476.0
17.500916242599487,479.0
17.50492525100708,481.0
17.510298013687134,485.0
17.51415205001831,490.0
17.521173000335693,503.0
17.525781869888306,505.0
17.53028917312622,508.0
17.53500509262085,510.0
17.538727045059204,513.0
17.54330801963806,517.0
17.547436952590942,510.0
17.55262517929077,514.0
17.55717396736145,489.0
17.561089038848877,514.0
17.565102100372314,512.0
17.569261074066162,511.0
17.573333024978638,510.0
17.580798149108887,512.0
17.587969064712524,517.0
17.59252119064331,522.0
17.596829175949097,528.0
17.601332902908325,529.0
17.605724096298218,537.0
17.613642930984497,539.0
17.61781597137451,543.0
17.622495889663696,551.0
17.630094051361084,542.0
17.635211944580078,540.0
17.639156103134155,534.0
17.64623212814331,538.0
17.65031385421753,535.0
17.654855251312256,536.0
17.65917205810547,528.0
17.66319704055786,532.0
17.668666124343872,523.0
17.67239022254944,502.0
17.6803879737854,522.0
17.68554425239563,520.0
17.689774990081787,522.0
17.696967124938965,519.0
17.701355934143066,493.0
17.70576500892639,518.0
17.71363401412964,518.0
17.71778917312622,518.0
17.722968101501465,522.0
17.72745108604431,534.0
17.73165726661682,540.0
17.735967874526978,542.0
17.740406036376953,528.0
17.744638204574585,551.0
17.749054193496704,564.0
17.75321102142334,568.0
17.757458209991455,572.0
17.761808156967163,564.0
17.766399145126343,562.0
17.770080089569092,543.0
17.775034189224243,519.0
17.778666973114014,530.0
17.785908222198486,524.0
17.791473150253296,522.0
17.795997142791748,521.0
17.80046010017395,516.0
17.805222034454346,496.0
17.809643030166626,520.0
17.81410813331604,523.0
17.818676233291626,525.0
17.82333207130432,519.0
17.828033924102783,514.0
17.83214831352234,513.0
17.8367280960083,504.0
17.843064069747925,511.0
17.847912073135376,502.0
17.85485005378723,506.0
17.85926604270935,508.0
17.86365008354187,479.0
17.86786699295044,505.0
17.87197709083557,503.0
17.87655210494995,510.0
17.88057017326355,485.0
17.885588884353638,515.0
17.889501094818115,522.0
17.896603107452393,522.0
17.902293920516968,534.0
17.906768083572388,539.0
17.91123604774475,544.0
17.915581226348877,549.0
17.92429804801941,552.0
17.928189039230347,531.0
17.932458877563477,528.0
17.936355113983154,522.0
17.940063953399658,517.0
17.94421124458313,514.0
17.948020219802856,522.0
17.955626964569092,509.0
17.960520267486572,500.0
17.965596199035645,500.0
17.970036268234253,499.0
17.974157094955444,502.0
17.978090286254883,511.0
17.98227596282959,499.0
17.986186027526855,514.0
17.990367889404297,516.0
17.994749069213867,519.0
17.99868607521057,509.0
18.003100156784058,510.0
18.00737190246582,518.0
18.01139187812805,523.0
18.018335103988647,522.0
18.023179054260254,526.0
18.02984595298767,503.0
18.034342050552368,525.0
18.03838610649109,523.0
18.04497194290161,528.0
18.05034303665161,524.0
18.054590225219727,526.0
18.059494018554688,532.0
18.06393527984619,524.0
18.068745136260986,527.0
18.072527170181274,531.0
18.079308032989502,517.0
18.083456993103027,519.0
18.08788013458252,514.0
18.092570066452026,510.0
18.0972158908844,514.0
18.101768255233765,513.0
18.10663604736328,515.0
18.11413598060608,513.0
18.12179708480835,516.0
18.126031160354614,514.0
18.130112886428833,519.0
18.135530948638916,533.0
18.139946222305298,541.0
18.147171020507812,554.0
18.15158700942993,549.0
18.155776977539062,542.0
18.16066026687622,528.0
18.165218114852905,510.0
18.16957998275757,499.0
18.173732042312622,461.0
18.177820205688477,479.0
18.18190884590149,474.0
18.186161041259766,462.0
18.190768003463745,465.0
18.1947181224823,466.0
18.199005126953125,464.0
18.2027530670166,475.0
18.2069890499115,500.0
18.21079707145691,530.0
18.214505195617676,550.0
18.221320152282715,566.0
18.225717067718506,569.0
18.230255126953125,554.0
18.234967947006226,537.0
18.239111185073853,526.0
18.245695114135742,501.0
18.250613927841187,481.0
18.254480123519897,475.0
18.260934114456177,466.0
18.265655994415283,457.0
18.27023720741272,459.0
18.276893138885498,470.0
18.281644105911255,475.0
18.289170265197754,480.0
18.297019004821777,483.0
18.301794052124023,499.0
18.306270122528076,496.0
18.312866926193237,501.0
18.317105054855347,506.0
18.320967197418213,510.0
18.325634956359863,507.0
18.329787015914917,507.0
18.334492206573486,507.0
18.338303089141846,500.0
18.34280800819397,509.0
18.346637964248657,503.0
18.350788116455078,507.0
18.35470724105835,508.0
18.361074209213257,484.0
18.368669271469116,509.0
18.373586177825928,507.0
18.378210067749023,511.0
18.38280415534973,508.0
18.387192964553833,508.0
18.391906023025513,516.0
18.396093130111694,512.0
18.400753021240234,514.0
18.404762029647827,508.0
18.4098961353302,512.0
18.41376805305481,511.0
18.418235063552856,513.0
18.42197012901306,513.0
18.42679500579834,525.0
18.43130898475647,501.0
18.435522079467773,524.0
18.440269947052002,516.0
18.445054292678833,521.0
18.449354887008667,520.0
18.453168153762817,510.0
18.45726203918457,496.0
18.461267232894897,502.0
18.465041160583496,500.0
18.471881866455078,496.0
18.47609305381775,496.0
18.48061203956604,503.0
18.48825693130493,501.0
18.493103981018066,504.0
18.49732232093811,517.0
18.504547119140625,514.0
18.511003017425537,522.0
18.5156090259552,525.0
18.519805192947388,532.0
18.523582220077515,542.0
18.52756118774414,540.0
18.53199815750122,551.0
18.53590226173401,548.0
18.540316104888916,543.0
18.544490098953247,531.0
18.54881191253662,530.0
18.55295205116272,523.0
18.556900024414062,515.0
18.56073522567749,514.0
18.564634084701538,482.0
18.57171130180359,491.0
18.5764000415802,480.0
18.58065915107727,471.0
18.587828874588013,471.0
18.592040061950684,446.0
18.595799922943115,477.0
18.602180004119873,474.0
18.606670141220093,479.0
18.61336588859558,480.0
18.617987155914307,495.0
18.622289180755615,504.0
18.62618112564087,512.0
18.630596160888672,518.0
18.637936115264893,525.0
18.642422914505005,528.0
18.646116018295288,528.0
18.65073823928833,525.0
18.65423822402954,525.0
18.658374071121216,520.0
18.66185212135315,522.0
18.66547131538391,521.0
18.669235229492188,519.0
18.672919988632202,522.0
18.679484128952026,519.0
18.684448957443237,521.0
18.688076972961426,513.0
18.69258689880371,527.0
18.696133136749268,526.0
18.700584173202515,505.0
18.704126119613647,526.0
18.710427045822144,524.0
18.715585947036743,516.0
18.72013211250305,518.0
18.72445297241211,520.0
18.72829818725586,516.0
18.732842206954956,517.0
18.736642122268677,535.0
18.743381023406982,523.0
18.748080015182495,522.0
18.75246810913086,513.0
18.756314992904663,522.0
18.763556003570557,522.0
18.768112182617188,528.0
18.772140979766846,525.0
18.77637004852295,514.0
18.78044104576111,531.0
18.785147190093994,532.0
18.789133071899414,532.0
18.795958042144775,527.0
18.80211305618286,530.0
18.806572914123535,526.0
18.812700033187866,522.0
18.819026231765747,526.0
18.82372808456421,528.0
18.827828884124756,522.0
18.8320209980011,525.0
18.83588409423828,520.0
18.839781045913696,498.0
18.84620213508606,515.0
18.851396083831787,508.0
18.85531520843506,491.0
18.859798908233643,509.0
18.863641023635864,517.0
18.86816716194153,507.0
18.872408151626587,523.0
18.87929105758667,527.0
18.885585069656372,537.0
18.890451192855835,518.0
18.89429807662964,516.0
18.898488998413086,512.0
18.903110027313232,511.0
18.907419204711914,511.0
18.911614179611206,511.0
18.915363073349,511.0
18.919154167175293,486.0
18.923079252243042,511.0
18.929865837097168,510.0
18.934149026870728,506.0
18.93780016899109,503.0
18.94232702255249,511.0
18.94589400291443,512.0
18.952007055282593,491.0
18.95588493347168,482.0
18.963063955307007,512.0
18.967283248901367,508.0
18.97148299217224,491.0
18.97799801826477,502.0
18.98558211326599,477.0
18.989968061447144,497.0
18.997027158737183,493.0
19.001254081726074,482.0
19.00557804107666,473.0
19.010279178619385,465.0
19.01484727859497,461.0
19.022273063659668,478.0
19.02748203277588,465.0
19.031450033187866,472.0
19.038931131362915,465.0
19.043465852737427,481.0
19.0481379032135,479.0
19.0528302192688,479.0
19.0572190284729,483.0
19.06150221824646,483.0
19.065543174743652,486.0
19.06960105895996,491.0
19.07342505455017,508.0
19.077458143234253,532.0
19.080880165100098,543.0
19.088737964630127,554.0
19.093451023101807,561.0
19.09701704978943,558.0
19.101238012313843,540.0
19.105759143829346,530.0
19.113280057907104,527.0
19.118122100830078,520.0
19.121966123580933,511.0
19.126662015914917,500.0
19.13061809539795,493.0
19.134802103042603,480.0
19.13849425315857,479.0
19.142400979995728,482.0
19.146743059158325,485.0
19.151016235351562,484.0
19.15505814552307,484.0
19.159608125686646,493.0
19.16337513923645,478.0
19.168143033981323,505.0
19.171600103378296,503.0
19.177959203720093,502.0
19.182456016540527,503.0
19.18686008453369,508.0
19.193770170211792,516.0
19.198112964630127,532.0
19.204689025878906,531.0
19.20910906791687,532.0
19.212752103805542,521.0
19.21696400642395,494.0
19.22051191329956,511.0
19.22474217414856,489.0
19.22834610939026,510.0
19.23200511932373,511.0
19.23627519607544,510.0
19.239995002746582,516.0
19.24459218978882,517.0
19.248619079589844,528.0
19.25261902809143,542.0
19.256760120391846,547.0
19.260934114456177,551.0
19.265207052230835,544.0
19.269278287887573,516.0
19.27300715446472,519.0
19.279561281204224,484.0
19.284041166305542,499.0
19.288095235824585,495.0
19.292903184890747,490.0
19.296961069107056,476.0
19.301459074020386,489.0
19.3055260181427,496.0
19.309949159622192,490.0
19.313855171203613,498.0
19.318843126296997,476.0
19.32281994819641,500.0
19.330036163330078,484.0
19.33496117591858,506.0
19.33905816078186,490.0
19.3467960357666,508.0
19.35098910331726,515.0
19.355080127716064,511.0
19.35966420173645,487.0
19.363540172576904,513.0
19.368158102035522,514.0
19.371909141540527,506.0
19.376675128936768,508.0
19.381248950958252,473.0
19.388349056243896,487.0
19.39260196685791,471.0
19.396909952163696,464.0
19.40162205696106,457.0
19.405548095703125,458.0
19.412482976913452,462.0
19.418882131576538,472.0
19.423272132873535,478.0
19.430263996124268,487.0
19.434981107711792,486.0
19.43958592414856,465.0
19.446593046188354,490.0
19.451151132583618,525.0
19.455141067504883,523.0
19.45926809310913,556.0
19.463117122650146,580.0
19.467570066452026,605.0
19.471272230148315,604.0
19.475747108459473,588.0
19.47971200942993,557.0
19.48348617553711,536.0
19.48844623565674,509.0
19.493146181106567,483.0
19.498584032058716,461.0
19.503732919692993,453.0
19.510959148406982,455.0
19.515655040740967,452.0
19.52040410041809,432.0
19.527303218841553,441.0
19.532227039337158,472.0
19.536659240722656,464.0
19.543122053146362,502.0
19.547492027282715,499.0
19.555196046829224,510.0
19.559946060180664,504.0
19.564183950424194,512.0
19.571945190429688,511.0
19.576367139816284,517.0
19.579967975616455,520.0
19.58413004875183,518.0
19.58794617652893,516.0
19.59452509880066,520.0
19.6015841960907,513.0
19.60656499862671,490.0
19.613725185394287,515.0
19.617895126342773,505.0
19.6218740940094,521.0
19.625851154327393,525.0
19.629669189453125,518.0
19.636146068572998,522.0
19.64370608329773,527.0
19.64899206161499,520.0
19.653455018997192,515.0
19.66015100479126,515.0
19.66535711288452,512.0
19.669840097427368,512.0
19.674015998840332,511.0
19.678160190582275,511.0
19.682173252105713,505.0
19.686402082443237,492.0
19.690354108810425,452.0
19.69551706314087,461.0
19.70010995864868,448.0
19.704284191131592,454.0
19.70930290222168,446.0
19.713520050048828,459.0
19.71780014038086,464.0
19.721559047698975,456.0
19.726243019104004,471.0
19.730005025863647,475.0
19.734198093414307,473.0
19.738038063049316,475.0
19.744354009628296,473.0
19.748788118362427,490.0
19.75306510925293,502.0
19.760437965393066,532.0
19.7652530670166,560.0
19.76972723007202,581.0
19.773760080337524,571.0
19.777942895889282,547.0
19.781764030456543,525.0
19.78889799118042,500.0
19.79365110397339,475.0
19.7982120513916,464.0
19.80535316467285,455.0
19.80963397026062,455.0
19.81364917755127,444.0
19.818521976470947,464.0
19.822283029556274,473.0
19.827314138412476,480.0
19.831756114959717,483.0
19.838732957839966,488.0
19.843351125717163,497.0
19.847491025924683,494.0
19.854777097702026,497.0
19.85985803604126,499.0
19.863641023635864,483.0
19.86789608001709,503.0
19.87194323539734,508.0
19.87600612640381,487.0
19.87940502166748,499.0
19.886116981506348,523.0
19.893648147583008,526.0
19.898951053619385,523.0
19.903501987457275,529.0
19.910335302352905,534.0
19.915088176727295,511.0
19.92164921760559,534.0
19.926746129989624,529.0
19.930726051330566,505.0
19.938081979751587,534.0
19.942296028137207,527.0
19.94623112678528,524.0
19.952670097351074,522.0
19.960615158081055,527.0
19.965271949768066,527.0
19.96961212158203,533.0
19.974080085754395,536.0
19.97840404510498,525.0
19.982218980789185,540.0
19.986141204833984,545.0
19.99039101600647,516.0
19.994460105895996,539.0
19.999051094055176,533.0
20.003540992736816,528.0
20.010026931762695,525.0
20.014772176742554,507.0
20.022340059280396,512.0
20.02989101409912,525.0
20.034257173538208,519.0
20.03812026977539,521.0
20.04198122024536,521.0
20.04652714729309,503.0
20.050801038742065,526.0
20.05505919456482,525.0
20.05922031402588,509.0
20.06321620941162,526.0
20.06748628616333,521.0
20.07131004333496,522.0
20.07602310180664,524.0
20.08013892173767,519.0
20.08467125892639,501.0
20.08905792236328,514.0
20.09662413597107,511.0
20.100961923599243,510.0
20.104706048965454,511.0
20.11116313934326,506.0
20.11558699607849,503.0
20.11961603164673,490.0
20.124067068099976,514.0
20.12864089012146,515.0
20.13493800163269,515.0
20.140064001083374,524.0
20.146608114242554,520.0
20.15094494819641,530.0
20.1544930934906,528.0
20.16099500656128,531.0
20.165535926818848,523.0
20.16943097114563,515.0
20.17315912246704,516.0
20.180692195892334,513.0
20.188048124313354,507.0
20.193012237548828,510.0
20.197251081466675,510.0
20.20163917541504,509.0
20.20652198791504,509.0
20.21378517150879,515.0
20.21799612045288,519.0
20.22187900543213,519.0
20.225749969482422,515.0
20.229448080062866,527.0
20.23372197151184,497.0
20.237632989883423,520.0
20.24410104751587,523.0
20.248831272125244,515.0
20.253913164138794,495.0
20.258112907409668,511.0
20.262612104415894,517.0
20.269407272338867,516.0
20.27387809753418,515.0
20.277788162231445,512.0
20.282252073287964,515.0
20.28625202178955,512.0
20.29060697555542,515.0
20.294995069503784,521.0
20.29890012741089,518.0
20.304001092910767,514.0
20.311125993728638,511.0
20.318413972854614,513.0
20.323065996170044,516.0
20.329883098602295,488.0
20.334223985671997,512.0
20.33849596977234,511.0
20.34245014190674,511.0
20.346694231033325,510.0
20.35141110420227,510.0
20.35514521598816,511.0
20.359551191329956,523.0
20.36380100250244,517.0
20.368480920791626,515.0
20.372945070266724,487.0
20.380112171173096,504.0
20.38427209854126,490.0
20.388198137283325,486.0
20.392630100250244,482.0
20.396939992904663,479.0
20.401129245758057,459.0
20.404873847961426,491.0
20.40906524658203,495.0
20.413461923599243,495.0
20.418549060821533,495.0
20.42291498184204,502.0
20.430429220199585,493.0
20.434980154037476,499.0
20.438660144805908,489.0
20.442949056625366,484.0
20.446766138076782,490.0
20.450756072998047,493.0
20.455113887786865,496.0
20.45960021018982,508.0
20.463674068450928,501.0
20.467586994171143,478.0
20.471651077270508,474.0
20.476366996765137,485.0
20.480531215667725,480.0
20.48539423942566,476.0
20.489109992980957,476.0
20.49652409553528,486.0
20.50050926208496,487.0
20.504244089126587,487.0
20.511372089385986,487.0
20.516682863235474,489.0
20.52096724510193,488.0
20.525634050369263,487.0
20.529543161392212,481.0
20.536190271377563,480.0
20.54076313972473,477.0
20.545769214630127,473.0
20.552685976028442,474.0
20.557310104370117,439.0
20.5623562335968,443.0
20.567042112350464,464.0
20.571081161499023,463.0
20.5778911113739,474.0
20.58512306213379,476.0
20.589843273162842,491.0
20.596937894821167,496.0
20.601908206939697,490.0
20.606243133544922,498.0
20.61362099647522,493.0
20.618272066116333,511.0
20.62236523628235,518.0
20.630072116851807,512.0
20.634536266326904,548.0
20.638220071792603,555.0
20.642335891723633,561.0
20.646186113357544,555.0
20.649959087371826,543.0
20.654354095458984,527.0
20.659038066864014,512.0
20.663064002990723,502.0
20.667442083358765,488.0
20.671316862106323,487.0
20.6759033203125,465.0
20.679408073425293,481.0
20.68360209465027,485.0
20.687135219573975,498.0
20.69369602203369,486.0
20.69791007041931,507.0
20.70494818687439,515.0
20.70951509475708,517.0
20.7135751247406,521.0
20.717371225357056,531.0
20.722337007522583,536.0
20.72962713241577,536.0
20.73455810546875,530.0
20.738489151000977,506.0
20.743447065353394,511.0
20.747218132019043,515.0
20.751851081848145,513.0
20.75550103187561,511.0
20.7594211101532,512.0
20.76321506500244,506.0
20.767064094543457,504.0
20.77118420600891,508.0
20.776167154312134,504.0
20.780452013015747,507.0
20.784735202789307,504.0
20.788557052612305,507.0
20.793594121932983,509.0
20.7971932888031,485.0
20.802009105682373,511.0
20.805501222610474,511.0
20.809535264968872,507.0
20.813570022583008,483.0
20.817957162857056,505.0
20.82193088531494,480.0
20.826143980026245,500.0
20.829861164093018,494.0
20.83406114578247,491.0
20.83778405189514,493.0
20.84252619743347,501.0
20.845981121063232,517.0
20.852559089660645,505.0
20.856985092163086,516.0
20.86107110977173,521.0
20.864759922027588,524.0
20.871763229370117,520.0
20.8765389919281,511.0
20.880429983139038,503.0
20.884613037109375,495.0
20.888073921203613,491.0
20.893140077590942,496.0
20.896639108657837,514.0
20.90072011947632,521.0
20.90420913696289,519.0
20.908075094223022,519.0
20.91205906867981,511.0
20.918474912643433,500.0
20.92342495918274,495.0
20.928466081619263,490.0
20.932172060012817,525.0
20.935768127441406,487.0
20.93948793411255,498.0
20.946370124816895,499.0
20.951179027557373,518.0
20.954946041107178,527.0
20.95879602432251,533.0
20.96323013305664,533.0
20.967669010162354,526.0
20.971713066101074,514.0
20.976591110229492,511.0
20.981398105621338,496.0
20.988737106323242,501.0
20.993168115615845,497.0
20.99692726135254,497.0
21.003145217895508,497.0
21.00699520111084,502.0
21.01150107383728,499.0
21.019469022750854,493.0
21.024206161499023,485.0
21.0284640789032,480.0
21.03247308731079,457.0
21.037564039230347,460.0
21.04282522201538,509.0
21.047477960586548,502.0
21.055689096450806,515.0
21.064048051834106,508.0
21.07147216796875,520.0
21.075721263885498,531.0
21.079068183898926,504.0
21.085870027542114,528.0
21.093684196472168,530.0
21.098040103912354,529.0
21.10447096824646,513.0
21.108527183532715,539.0
21.11281394958496,547.0
21.117286205291748,547.0
21.12142300605774,537.0
21.125730991363525,533.0
21.129553079605103,500.0
21.134241104125977,512.0
21.13807511329651,497.0
21.142518997192383,488.0
21.14636516571045,488.0
21.150551080703735,482.0
21.154572010040283,477.0
21.161151885986328,482.0
21.166579246520996,489.0
21.17054319381714,467.0
21.177835941314697,500.0
21.185060024261475,476.0
21.189874172210693,505.0
21.19683599472046,512.0
21.20141625404358,514.0
21.20567226409912,514.0
21.213298082351685,501.0
21.21749711036682,522.0
21.221294164657593,523.0
21.22557520866394,520.0
21.22947120666504,525.0
21.235952138900757,502.0
21.240368127822876,524.0
21.245024919509888,527.0
21.24884295463562,521.0
21.252763032913208,515.0
21.25752592086792,509.0
21.262086153030396,505.0
21.2689311504364,496.0
21.273629188537598,475.0
21.277865171432495,488.0
21.28167486190796,481.0
21.28917407989502,478.0
21.29652190208435,474.0
21.3035089969635,454.0
21.308300971984863,465.0
21.312175035476685,465.0
21.318660974502563,458.0
21.323976278305054,465.0
21.327922105789185,479.0
21.33242702484131,493.0
21.336801052093506,515.0
21.343719244003296,526.0
21.348411083221436,532.0
21.355683088302612,535.0
21.36352300643921,550.0
21.368008136749268,565.0
21.371706008911133,575.0
21.375734090805054,580.0
21.38017511367798,571.0
21.384189128875732,561.0
21.38852024078369,551.0
21.39316701889038,537.0
21.397175073623657,531.0
21.402303218841553,495.0
21.406747102737427,497.0
21.41125226020813,479.0
21.415151119232178,459.0
21.423081159591675,426.0
21.430186986923218,449.0
21.434728145599365,430.0
21.43884801864624,459.0
21.443508863449097,466.0
21.447440147399902,475.0
21.45524287223816,491.0
21.45993709564209,498.0
21.463778018951416,503.0
21.467882871627808,514.0
21.472134113311768,494.0
21.47641897201538,518.0
21.48064088821411,514.0
21.48809313774109,506.0
21.492372274398804,514.0
21.496329069137573,512.0
21.503013134002686,523.0
21.51077127456665,494.0
21.51559329032898,522.0
21.519565105438232,497.0
21.523739099502563,520.0
21.527944087982178,512.0
21.531697034835815,507.0
21.53603506088257,515.0
21.539885997772217,520.0
21.546797037124634,514.0
21.551424980163574,517.0
21.5555100440979,549.0
21.559895992279053,552.0
21.56365990638733,547.0
21.56827211380005,540.0
21.572195053100586,535.0
21.576305150985718,521.0
21.580016136169434,514.0
21.583904027938843,504.0
21.5884850025177,500.0
21.593346118927002,500.0
21.59720015525818,508.0
21.601338148117065,507.0
21.605499029159546,509.0
21.610421895980835,519.0
21.614638090133667,513.0
21.621313095092773,520.0
21.625772953033447,518.0
21.629646062850952,519.0
21.63348698616028,512.0
21.63801407814026,517.0
21.642377853393555,496.0
21.646640062332153,521.0
21.65083408355713,524.0
21.654908180236816,519.0
21.6596200466156,524.0
21.663223028182983,527.0
21.6679790019989,529.0
21.672461986541748,534.0
21.679387092590332,530.0
21.683922052383423,529.0
21.688634157180786,533.0
21.69283699989319,540.0
21.697082996368408,531.0
21.701333045959473,538.0
21.705267190933228,535.0
21.709455013275146,526.0
21.71327829360962,524.0
21.717458248138428,530.0
21.721265077590942,522.0
21.725162267684937,519.0
21.72896718978882,519.0
21.735152006149292,500.0
21.740192890167236,526.0
21.746710062026978,528.0
21.75114631652832,524.0
21.755032062530518,526.0
21.75947403907776,504.0
21.763307094573975,525.0
21.767938137054443,527.0
21.771998167037964,524.0
21.775999307632446,523.0
21.780197143554688,524.0
21.784837007522583,532.0
21.78879404067993,526.0
21.793517112731934,526.0
21.797351121902466,529.0
21.804806232452393,529.0
21.809386253356934,528.0
21.813529014587402,535.0
21.81744623184204,532.0
21.822930097579956,530.0
21.830607175827026,527.0
21.837353229522705,516.0
21.843402862548828,516.0
21.847854137420654,512.0
21.854187965393066,508.0
21.860244274139404,502.0
21.864572048187256,480.0
21.871185064315796,489.0
21.87520718574524,488.0
21.87955617904663,488.0
21.885902166366577,485.0
21.893501043319702,485.0
21.89874291419983,492.0
21.903167247772217,490.0
21.90720820426941,500.0
21.911505222320557,501.0
21.915798902511597,523.0
21.919970989227295,520.0
21.92390012741089,520.0
21.92765522003174,520.0
21.931315183639526,519.0
21.93807101249695,519.0
21.944365978240967,519.0
21.948909044265747,530.0
21.95313310623169,527.0
21.95982813835144,493.0
21.964787244796753,511.0
21.97100520133972,504.0
21.977281093597412,506.0
21.981823205947876,498.0
21.98608708381653,487.0
21.989887952804565,489.0
21.996498107910156,484.0
22.000789880752563,481.0
22.0053870677948,472.0
22.009492874145508,472.0
22.013581037521362,474.0
22.018258094787598,451.0
22.02280592918396,473.0
22.029436111450195,484.0
22.03563117980957,494.0
22.040395975112915,496.0
22.044458866119385,500.0
22.048269987106323,512.0
22.054932117462158,522.0
22.058825969696045,538.0
22.063250064849854,551.0
22.067135095596313,567.0
22.070807933807373,548.0
22.07490611076355,578.0
22.078550100326538,569.0
22.085094213485718,556.0
22.090177059173584,541.0
22.094347953796387,530.0
22.098148107528687,517.0
22.104926109313965,515.0
22.109081983566284,487.0
22.11345410346985,502.0
22.117516040802002,508.0
22.121617078781128,514.0
22.12625503540039,513.0
22.130226135253906,517.0
22.134170055389404,517.0
22.137977123260498,521.0
22.141908168792725,526.0
22.145649194717407,524.0
22.15206813812256,531.0
22.156711101531982,534.0
22.160901069641113,539.0
22.16471815109253,536.0
22.17154312133789,531.0
22.175682067871094,543.0
22.17955493927002,544.0
22.18585205078125,539.0
22.19068717956543,547.0
22.194751977920532,538.0
22.19853115081787,531.0
22.204742193222046,531.0
22.211173057556152,527.0
22.216403245925903,529.0
22.220582008361816,516.0
22.226929187774658,514.0
22.232227087020874,510.0
22.23645520210266,518.0
22.2402081489563,507.0
22.24414825439453,502.0
22.247864961624146,508.0
22.254629135131836,508.0
22.259215116500854,507.0
22.263272047042847,505.0
22.267580032348633,487.0
22.271263122558594,507.0
22.27543807029724,505.0
22.27928328514099,507.0
22.285746097564697,506.0
22.290300130844116,505.0
22.294739246368408,509.0
22.301684141159058,512.0
22.307043075561523,509.0
22.310911893844604,514.0
22.314878225326538,511.0
22.32137417793274,512.0
22.32785201072693,510.0
22.332258939743042,507.0
22.336453199386597,492.0
22.340212106704712,486.0
22.347227096557617,507.0
22.354806900024414,504.0
22.358943223953247,505.0
22.362676858901978,487.0
22.36683201789856,498.0
22.37062907218933,472.0
22.376845121383667,500.0
22.38134217262268,497.0
22.388944149017334,513.0
22.39604115486145,505.0
22.40227198600769,500.0
22.406795978546143,505.0
22.413652896881104,509.0
22.417976140975952,512.0
22.422119140625,507.0
22.426692008972168,511.0
22.430521965026855,507.0
22.434596061706543,512.0
22.438261032104492,490.0
22.442547082901,518.0
22.446388959884644,517.0
22.45259118080139,518.0
22.456820964813232,517.0
22.46085023880005,521.0
22.465474128723145,522.0
22.469631910324097,518.0
22.474016904830933,528.0
22.478156089782715,501.0
22.482044219970703,529.0
22.4887752532959,535.0
22.49328303337097,534.0
22.497098922729492,541.0
22.501129150390625,535.0
22.505073070526123,512.0
22.508929014205933,537.0
22.51303505897522,542.0
22.51726007461548,533.0
22.521250009536743,529.0
22.525710105895996,532.0
22.52949023246765,530.0
22.533416271209717,530.0
22.536959886550903,517.0
22.543439149856567,534.0
22.5486741065979,541.0
22.553218126296997,525.0
22.55704426765442,550.0
22.560791969299316,548.0
22.565518140792847,544.0
22.569387912750244,537.0
22.573777198791504,531.0
22.580387115478516,527.0
22.585139274597168,522.0
22.58955693244934,511.0
22.596410036087036,518.0
22.60110902786255,520.0
22.60464096069336,512.0
22.60927414894104,489.0
22.612905263900757,514.0
22.61704111099243,515.0
22.62058687210083,496.0
22.62669801712036,515.0
22.63195514678955,513.0
22.63644313812256,515.0
22.64299511909485,522.0
22.64752507209778,523.0
22.654326915740967,526.0
22.660759925842285,534.0
22.665364980697632,529.0
22.66953420639038,525.0
