time,emg
1.0141820907592773,833.0
1.0244932174682617,812.0
1.034029245376587,834.0
1.0447959899902344,832.0
1.05460786819458,828.0
1.0646710395812988,834.0
1.0743749141693115,835.0
1.0838110446929932,842.0
1.0946319103240967,842.0
1.1041531562805176,838.0
1.114670991897583,844.0
1.1244370937347412,843.0
1.1339061260223389,847.0
1.144759178161621,845.0
1.1546790599822998,849.0
1.1646411418914795,850.0
1.1743600368499756,850.0
1.1838200092315674,854.0
1.1945469379425049,855.0
1.2039580345153809,856.0
1.214698076248169,860.0
1.224370002746582,858.0
1.2338659763336182,858.0
1.244502067565918,856.0
1.2543010711669922,848.0
1.2641899585723877,849.0
1.274144172668457,818.0
1.2847011089324951,825.0
1.2945191860198975,832.0
1.3042500019073486,831.0
1.314180850982666,809.0
1.3242592811584473,839.0
1.3348031044006348,833.0
1.3441569805145264,833.0
1.3548250198364258,837.0
1.3646800518035889,819.0
1.3744289875030518,847.0
1.3838930130004883,850.0
1.394639015197754,843.0
1.403993844985962,852.0
1.414674997329712,846.0
1.4244370460510254,844.0
1.433941125869751,840.0
1.4446978569030762,843.0
1.4545609951019287,845.0
1.4646520614624023,844.0
1.4744720458984375,838.0
1.4838979244232178,841.0
1.4945781230926514,840.0
1.5038700103759766,835.0
1.5146708488464355,841.0
1.5243990421295166,842.0
1.5338351726531982,841.0
1.544477939605713,844.0
1.554274082183838,841.0
1.5641510486602783,837.0
1.5745749473571777,841.0
1.5840539932250977,829.0
1.5948381423950195,847.0
1.6047251224517822,844.0
1.6146740913391113,834.0
1.6245331764221191,824.0
1.6341140270233154,840.0
1.6450221538543701,841.0
1.6549201011657715,841.0
1.6646668910980225,841.0
1.6744410991668701,846.0
1.683906078338623,844.0
1.694728136062622,824.0
1.7046380043029785,849.0
1.7146739959716797,819.0
1.7244172096252441,850.0
1.7339060306549072,847.0
1.744636058807373,846.0
1.7544291019439697,844.0
1.7646679878234863,853.0
1.7743759155273438,857.0
1.7838149070739746,854.0
1.794555902481079,852.0
1.8043148517608643,849.0
1.8146560192108154,845.0
1.8243799209594727,854.0
1.8338298797607422,854.0
1.8445489406585693,857.0
1.8543329238891602,853.0
1.8646690845489502,853.0
1.8744142055511475,852.0
1.8838322162628174,851.0
1.894577980041504,850.0
1.904142141342163,851.0
1.9146718978881836,849.0
1.9244539737701416,850.0
1.9338791370391846,825.0
1.9446210861206055,847.0
1.9545061588287354,850.0
1.9646689891815186,851.0
1.9743549823760986,852.0
1.983809232711792,853.0
1.9944970607757568,855.0
2.004359006881714,857.0
2.0146520137786865,855.0
2.0243940353393555,854.0
2.0338940620422363,852.0
2.0446369647979736,862.0
2.05442214012146,827.0
2.064656972885132,858.0
2.0744740962982178,853.0
2.083944082260132,853.0
2.0947389602661133,854.0
2.104167938232422,857.0
2.1146481037139893,863.0
2.1244471073150635,853.0
2.1338961124420166,859.0
2.1446611881256104,843.0
2.154503107070923,862.0
2.1646370887756348,859.0
2.17445707321167,852.0
2.1839189529418945,851.0
2.194658041000366,856.0
2.2045631408691406,840.0
2.2146639823913574,845.0
2.2243540287017822,844.0
2.233774185180664,845.0
2.2445430755615234,820.0
2.2544100284576416,841.0
2.264639139175415,845.0
2.274505138397217,841.0
2.283940076828003,845.0
2.294666051864624,843.0
2.3045120239257812,844.0
2.314669132232666,845.0
2.3244869709014893,841.0
2.333984136581421,842.0
2.344774007797241,842.0
2.354681968688965,845.0
2.3646349906921387,844.0
2.374484062194824,848.0
2.3839151859283447,847.0
2.3946571350097656,847.0
2.404557228088379,845.0
2.4146599769592285,848.0
2.4243552684783936,842.0
2.4338161945343018,843.0
2.4445550441741943,853.0
2.4544179439544678,842.0
2.4646589756011963,839.0
2.4744091033935547,843.0
2.4838600158691406,843.0
2.494641065597534,843.0
2.504486083984375,848.0
2.5146849155426025,831.0
2.524409294128418,847.0
2.5339579582214355,846.0
2.544861078262329,847.0
2.5547022819519043,844.0
2.56465220451355,850.0
2.574477195739746,850.0
2.583916187286377,848.0
2.5946671962738037,844.0
2.604556083679199,841.0
2.614672899246216,839.0
2.624472141265869,837.0
2.633888006210327,832.0
2.644611120223999,839.0
2.6544289588928223,835.0
2.664663076400757,839.0
2.674510955810547,836.0
2.6840291023254395,835.0
2.6948680877685547,815.0
2.704768180847168,836.0
2.7146410942077637,840.0
2.7244529724121094,841.0
2.733910083770752,846.0
2.74468994140625,843.0
2.754564046859741,842.0
2.764677047729492,845.0
2.7744882106781006,842.0
2.783936023712158,839.0
2.7946979999542236,839.0
2.8046040534973145,836.0
2.814638137817383,839.0
2.8244690895080566,846.0
2.833975076675415,840.0
2.8447041511535645,842.0
2.8545989990234375,839.0
2.8646280765533447,817.0
2.8744890689849854,842.0
2.8839471340179443,845.0
2.894650936126709,822.0
2.904529094696045,845.0
2.9146370887756348,838.0
2.9244589805603027,843.0
2.9338979721069336,837.0
2.944679021835327,831.0
2.9546151161193848,816.0
2.9646458625793457,829.0
2.974433183670044,831.0
2.9838531017303467,825.0
2.994657039642334,828.0
3.0045981407165527,830.0
3.014641046524048,834.0
3.0244250297546387,831.0
3.0338690280914307,838.0
3.044694185256958,838.0
3.0547499656677246,837.0
3.064678907394409,843.0
3.074446201324463,835.0
3.0838699340820312,844.0
3.09458589553833,841.0
3.1041219234466553,843.0
3.1146440505981445,837.0
3.1243321895599365,841.0
3.133759021759033,839.0
3.1444990634918213,838.0
3.1544580459594727,837.0
3.1646499633789062,842.0
3.1744110584259033,846.0
3.1838531494140625,847.0
3.194610118865967,850.0
3.2045199871063232,848.0
3.2146639823913574,851.0
3.224349021911621,851.0
3.2338309288024902,849.0
3.2445881366729736,849.0
3.2545530796051025,844.0
3.264636993408203,846.0
3.274308919906616,851.0
3.283761978149414,848.0
3.294543981552124,845.0
3.3043711185455322,850.0
3.314652919769287,854.0
3.324345827102661,852.0
3.3337879180908203,853.0
3.3441460132598877,849.0
3.354753017425537,846.0
3.364683151245117,849.0
3.374366044998169,853.0
3.383795976638794,845.0
3.3946220874786377,849.0
3.40449595451355,852.0
3.4146339893341064,847.0
3.4243929386138916,864.0
3.433979034423828,848.0
3.4448049068450928,850.0
3.4543471336364746,849.0
3.4646291732788086,841.0
3.474433183670044,829.0
3.4839160442352295,856.0
3.4947469234466553,862.0
3.5041379928588867,859.0
3.5146608352661133,856.0
3.5244691371917725,857.0
3.533946990966797,853.0
3.5448009967803955,845.0
3.5547022819519043,831.0
3.564629077911377,844.0
3.574415922164917,841.0
3.5838658809661865,840.0
3.5945980548858643,816.0
3.60463809967041,841.0
3.6146581172943115,846.0
3.6243999004364014,846.0
3.6338839530944824,841.0
3.6447081565856934,850.0
3.654726982116699,848.0
3.6646549701690674,843.0
3.674452066421509,845.0
3.6838810443878174,839.0
3.694694995880127,850.0
3.7045671939849854,842.0
3.7146341800689697,839.0
3.7244229316711426,837.0
3.733891248703003,841.0
3.744657039642334,842.0
3.754512071609497,836.0
3.7646570205688477,822.0
3.77432918548584,840.0
3.7837650775909424,847.0
3.7944772243499756,842.0
3.804385185241699,844.0
3.8146560192108154,842.0
3.8243629932403564,852.0
3.8338019847869873,853.0
3.8445510864257812,853.0
3.8544342517852783,851.0
3.864652156829834,852.0
3.874336004257202,846.0
3.8837461471557617,844.0
3.894472122192383,845.0
3.904147148132324,840.0
3.914673089981079,820.0
3.924394130706787,845.0
3.9337899684906006,836.0
3.9445042610168457,840.0
3.954454183578491,850.0
3.964651107788086,848.0
3.9744038581848145,847.0
3.983891010284424,838.0
3.9946749210357666,839.0
4.004514217376709,849.0
4.014632940292358,845.0
4.024425983428955,844.0
4.033927917480469,845.0
4.044771194458008,842.0
4.054651975631714,842.0
4.064681053161621,843.0
4.07433295249939,843.0
4.083784103393555,842.0
4.094516038894653,841.0
4.104431867599487,837.0
4.114630937576294,851.0
4.124407052993774,844.0
4.133881092071533,844.0
4.144683122634888,847.0
4.15460205078125,846.0
4.164697885513306,837.0
4.174393892288208,839.0
4.183865070343018,841.0
4.194590091705322,847.0
4.204456090927124,850.0
4.214635133743286,848.0
4.2244110107421875,852.0
4.233864068984985,853.0
4.244328022003174,846.0
4.254204988479614,854.0
4.26416015625,859.0
4.274211168289185,858.0
4.28364109992981,852.0
4.294310092926025,850.0
4.30411696434021,852.0
4.314637184143066,854.0
4.324382066726685,854.0
4.33384108543396,852.0
4.344587087631226,849.0
4.354391098022461,821.0
4.364641189575195,849.0
4.374331951141357,851.0
4.3837220668792725,847.0
4.394400119781494,840.0
4.404330015182495,839.0
4.4145989418029785,838.0
4.424345970153809,842.0
4.433838844299316,843.0
4.444537878036499,838.0
4.4543280601501465,840.0
4.464643239974976,842.0
4.474344968795776,839.0
4.483747243881226,842.0
4.494430065155029,845.0
4.504347085952759,853.0
4.5146472454071045,854.0
4.524407148361206,840.0
4.5338451862335205,854.0
4.544623851776123,851.0
4.55449914932251,852.0
4.56462287902832,850.0
4.574307203292847,853.0
4.583777189254761,846.0
4.594502925872803,847.0
4.6043500900268555,848.0
4.6146509647369385,846.0
4.6240010261535645,855.0
4.634553909301758,848.0
4.6442389488220215,847.0
4.654198169708252,847.0
4.664155006408691,848.0
4.674255847930908,846.0
4.683715105056763,849.0
4.694380044937134,854.0
4.704108238220215,849.0
4.714653968811035,852.0
4.724348068237305,856.0
4.733785152435303,853.0
4.744502067565918,853.0
4.754329204559326,861.0
4.764630079269409,851.0
4.7744269371032715,847.0
4.783890962600708,847.0
4.79465913772583,843.0
4.804633140563965,850.0
4.814648151397705,852.0
4.824377059936523,849.0
4.833904027938843,852.0
4.84469199180603,853.0
4.854587078094482,852.0
4.864613056182861,856.0
4.874349117279053,861.0
4.883778095245361,845.0
4.894521951675415,862.0
4.904463052749634,854.0
4.914642095565796,854.0
4.9242918491363525,854.0
4.933733940124512,851.0
4.944124937057495,848.0
4.954787254333496,846.0
4.964616060256958,844.0
4.974416971206665,851.0
4.983925104141235,849.0
4.9947190284729,854.0
5.004611253738403,850.0
5.014607906341553,853.0
5.02428126335144,857.0
5.03472113609314,853.0
5.044501066207886,850.0
5.054887056350708,852.0
5.063920021057129,849.0
5.074505090713501,850.0
5.084130048751831,845.0
5.0941691398620605,846.0
5.104152202606201,851.0
5.113770008087158,851.0
5.124526262283325,822.0
5.1342339515686035,853.0
5.144484281539917,851.0
5.154469966888428,855.0
5.163908004760742,852.0
5.174475193023682,847.0
5.184010028839111,833.0
5.194879055023193,855.0
5.204905033111572,851.0
5.214667081832886,846.0
5.224374055862427,825.0
5.23407506942749,855.0
5.243897914886475,843.0
5.2549309730529785,850.0
5.264620065689087,846.0
5.274499893188477,853.0
5.284043073654175,848.0
5.294946193695068,848.0
5.30471396446228,842.0
5.3146069049835205,826.0
5.324343204498291,851.0
5.333837032318115,834.0
5.344397068023682,847.0
5.354020118713379,839.0
5.364637136459351,822.0
5.374413251876831,848.0
5.383955955505371,822.0
5.394873142242432,845.0
5.404860973358154,844.0
5.414615154266357,843.0
5.424556016921997,844.0
5.434178113937378,844.0
5.443975925445557,846.0
5.455063104629517,824.0
5.46474289894104,853.0
5.474518060684204,851.0
5.484101057052612,849.0
5.493962049484253,845.0
5.50498104095459,846.0
5.517180919647217,848.0
5.524612903594971,823.0
5.534114122390747,845.0
5.543929100036621,850.0
5.5549540519714355,850.0
5.564618110656738,845.0
5.574350833892822,842.0
5.583868026733398,839.0
5.594713926315308,845.0
5.604562044143677,834.0
5.614639043807983,836.0
5.624006032943726,834.0
5.634611129760742,836.0
5.644426107406616,810.0
5.654267072677612,842.0
5.664602041244507,847.0
5.674484968185425,845.0
5.6839759349823,851.0
5.694785118103027,838.0
5.70467209815979,852.0
5.714613199234009,853.0
5.724498987197876,851.0
5.734014987945557,856.0
5.744810104370117,850.0
5.754663944244385,853.0
5.764601945877075,851.0
5.774420976638794,852.0
5.78386116027832,851.0
5.7946178913116455,845.0
5.804492235183716,841.0
5.814624071121216,838.0
5.824429035186768,843.0
5.833889007568359,856.0
5.844718933105469,845.0
5.8546178340911865,849.0
5.864645957946777,851.0
5.874436855316162,852.0
5.883926153182983,857.0
5.8947670459747314,857.0
5.904676198959351,858.0
5.914618015289307,860.0
5.924417018890381,859.0
5.9338459968566895,853.0
5.94460391998291,849.0
5.954406976699829,848.0
5.964611053466797,843.0
5.97442102432251,834.0
5.984013080596924,833.0
5.994765043258667,819.0
6.004741907119751,817.0
6.0146119594573975,833.0
6.024543046951294,836.0
6.03418493270874,821.0
6.044000148773193,845.0
6.055099010467529,852.0
6.064612865447998,846.0
6.074419021606445,843.0
6.0838868618011475,849.0
6.094731092453003,849.0
6.104685068130493,850.0
6.1146111488342285,823.0
6.124409198760986,851.0
6.133973121643066,842.0
6.144735097885132,840.0
6.154573202133179,839.0
6.164608001708984,820.0
6.1744489669799805,841.0
6.183967113494873,847.0
6.194843053817749,851.0
6.204768180847168,848.0
6.215148210525513,848.0
6.224535226821899,849.0
6.234177112579346,851.0
6.243901014328003,856.0
6.25488018989563,856.0
6.265155076980591,849.0
6.274977207183838,854.0
6.2846291065216064,850.0
6.294378995895386,850.0
6.3041980266571045,848.0
6.314022064208984,850.0
6.324466943740845,851.0
6.334007024765015,846.0
6.344730854034424,850.0
6.354639053344727,846.0
6.364619016647339,850.0
6.374511003494263,850.0
6.384010076522827,845.0
6.394887924194336,848.0
6.40487813949585,854.0
6.414649963378906,828.0
6.424576044082642,845.0
6.434166193008423,849.0
6.44396710395813,827.0
6.455143928527832,848.0
6.465155839920044,853.0
6.474096059799194,850.0
6.484738111495972,850.0
6.494607925415039,858.0
6.5045859813690186,851.0
6.51462721824646,849.0
6.524206876754761,856.0
6.533818006515503,853.0
6.54432225227356,855.0
6.554210186004639,847.0
6.564117193222046,851.0
6.574554920196533,837.0
6.584028005599976,841.0
6.5947699546813965,841.0
6.604636907577515,816.0
6.6146240234375,845.0
6.624387979507446,850.0
6.633912086486816,839.0
6.644788026809692,856.0
6.654617071151733,849.0
6.664606094360352,844.0
6.67457914352417,850.0
6.684120178222656,848.0
6.694648265838623,847.0
6.704118013381958,844.0
6.71516489982605,846.0
6.724884986877441,847.0
6.734474182128906,845.0
6.744333028793335,845.0
6.7543089389801025,844.0
6.764628171920776,818.0
6.774358034133911,851.0
6.783876895904541,851.0
6.794562101364136,824.0
6.804837942123413,835.0
6.8146281242370605,839.0
6.8243629932403564,840.0
6.833862066268921,843.0
6.8446691036224365,835.0
6.854511022567749,837.0
6.864599227905273,836.0
6.874360084533691,834.0
6.88385796546936,838.0
6.894705057144165,831.0
6.90523099899292,826.0
6.913956880569458,834.0
6.9244091510772705,836.0
6.933930158615112,835.0
6.944321155548096,837.0
6.954122066497803,838.0
6.965152025222778,835.0
6.974555969238281,834.0
6.984004974365234,832.0
6.994618892669678,838.0
7.004514217376709,835.0
7.014644145965576,844.0
7.024413108825684,842.0
7.034147262573242,846.0
7.043915033340454,852.0
7.054784059524536,851.0
7.064570903778076,852.0
7.07439398765564,850.0
7.083952903747559,849.0
7.094785213470459,843.0
7.104143857955933,845.0
7.1151509284973145,840.0
7.124524116516113,835.0
7.134066104888916,838.0
7.144573926925659,836.0
7.155264139175415,838.0
7.163853168487549,810.0
7.174281120300293,829.0
7.18381404876709,830.0
7.194563865661621,834.0
7.204416036605835,828.0
7.2146220207214355,836.0
7.2242350578308105,809.0
7.233775854110718,834.0
7.244390964508057,844.0
7.2542901039123535,846.0
7.264592885971069,846.0
7.274478197097778,849.0
7.284128189086914,856.0
7.29390287399292,843.0
7.3047239780426025,844.0
7.314600944519043,837.0
7.324386119842529,834.0
7.333974123001099,836.0
7.34483003616333,835.0
7.354766845703125,841.0
7.365131139755249,844.0
7.375115156173706,847.0
7.384767055511475,844.0
7.394525051116943,827.0
7.404438018798828,847.0
7.414621114730835,846.0
7.424307107925415,853.0
7.4338929653167725,823.0
7.444572925567627,824.0
7.454531908035278,845.0
7.464655876159668,841.0
7.47497820854187,827.0
7.484657049179077,849.0
7.494638919830322,836.0
7.504134893417358,832.0
7.514656066894531,814.0
7.524590253829956,828.0
7.5341269969940186,830.0
7.544097185134888,816.0
7.55460786819458,833.0
7.564600229263306,832.0
7.5744688510894775,834.0
7.584034204483032,833.0
7.5948569774627686,828.0
7.605295896530151,811.0
7.614099979400635,824.0
7.62450098991394,825.0
7.634036064147949,829.0
7.64492392539978,830.0
7.6552910804748535,826.0
7.66395902633667,833.0
7.674362897872925,808.0
7.683824062347412,834.0
7.694535970687866,835.0
7.704336881637573,842.0
7.714597940444946,846.0
7.724328994750977,841.0
7.733843088150024,836.0
7.744636058807373,839.0
7.754754066467285,835.0
7.764110088348389,834.0
7.77450704574585,837.0
7.783977031707764,838.0
7.794739007949829,848.0
7.804641008377075,838.0
7.8146140575408936,842.0
7.82443904876709,840.0
7.834060192108154,837.0
7.845020055770874,836.0
7.855744123458862,837.0
7.864575147628784,833.0
7.874452114105225,835.0
7.8840131759643555,839.0
7.894924163818359,833.0
7.905442237854004,837.0
7.914083242416382,837.0
7.924440145492554,839.0
7.934062957763672,844.0
7.944960117340088,836.0
7.9549572467803955,835.0
7.964608192443848,836.0
7.974416017532349,809.0
7.983921051025391,832.0
7.994686126708984,835.0
8.004537105560303,837.0
8.014604091644287,838.0
8.024385213851929,830.0
8.033979892730713,842.0
8.0448899269104,845.0
8.05483102798462,828.0
8.064625024795532,846.0
8.074425220489502,848.0
8.084099054336548,844.0
8.094052076339722,842.0
8.105131149291992,844.0
8.114253044128418,845.0
8.124655961990356,822.0
8.134424209594727,839.0
8.144415140151978,836.0
8.15483021736145,833.0
8.164649963378906,837.0
8.174444198608398,836.0
8.184116125106812,834.0
8.194185018539429,834.0
8.20434308052063,833.0
8.214627265930176,836.0
8.224518060684204,829.0
8.234177112579346,841.0
8.244206190109253,833.0
8.254218101501465,834.0
8.26463794708252,836.0
8.274391174316406,838.0
8.284075021743774,836.0
8.295092105865479,832.0
8.30419111251831,815.0
8.313987255096436,831.0
8.324708938598633,811.0
8.334459066390991,835.0
8.344351053237915,830.0
8.354353904724121,828.0
8.364635944366455,824.0
8.374376058578491,827.0
8.384067058563232,829.0
8.394906997680664,832.0
8.404906988143921,842.0
8.41457223892212,844.0
8.424440145492554,840.0
8.434039115905762,819.0
8.444796085357666,845.0
8.454668045043945,846.0
8.464643239974976,843.0
8.474457263946533,841.0
8.484068155288696,840.0
8.494930028915405,837.0
8.504878282546997,834.0
8.514566898345947,832.0
8.524368047714233,830.0
8.533881902694702,832.0
8.544641017913818,804.0
8.554582118988037,841.0
8.564579248428345,831.0
8.574324131011963,831.0
8.583808183670044,829.0
8.594627857208252,825.0
8.60457706451416,827.0
8.614645004272461,838.0
8.624380111694336,833.0
8.634082078933716,834.0
8.64408826828003,835.0
8.654102087020874,839.0
8.66515302658081,839.0
8.674989223480225,839.0
8.684779167175293,839.0
8.69440221786499,840.0
8.704162120819092,838.0
8.714636087417603,841.0
8.724477052688599,838.0
8.734194040298462,840.0
8.744272947311401,834.0
8.754058122634888,843.0
8.765186071395874,843.0
8.774503946304321,842.0
8.784025192260742,844.0
8.794981956481934,844.0
8.80545687675476,832.0
8.814083099365234,847.0
8.82440710067749,846.0
8.83406114578247,844.0
8.845028162002563,844.0
8.854624032974243,841.0
8.864166021347046,847.0
8.874457120895386,818.0
8.884100914001465,840.0
8.894981861114502,837.0
8.905488014221191,839.0
8.91412615776062,839.0
8.924363136291504,841.0
8.933913230895996,839.0
8.944723129272461,837.0
8.954658031463623,836.0
8.964592933654785,835.0
8.974333047866821,836.0
8.983834981918335,843.0
8.99458909034729,838.0
9.004460096359253,835.0
9.014615058898926,836.0
9.024359941482544,833.0
9.033858060836792,824.0
9.04456090927124,802.0
9.054996967315674,828.0
9.064594984054565,821.0
9.074318885803223,830.0
9.084100008010864,825.0
9.09400200843811,834.0
9.104246139526367,831.0
9.114007234573364,835.0
9.124245166778564,834.0
9.133910179138184,838.0
9.144889116287231,837.0
9.15541410446167,834.0
9.164121866226196,834.0
9.174407958984375,826.0
9.184081077575684,836.0
9.193945169448853,827.0
9.204931259155273,830.0
9.215181112289429,828.0
9.225080251693726,833.0
9.233902215957642,827.0
9.244931936264038,831.0
9.254917860031128,818.0
9.264657974243164,832.0
9.274468183517456,837.0
9.28407621383667,836.0
9.2939772605896,840.0
9.305191040039062,843.0
9.314574956893921,846.0
9.324458122253418,846.0
9.333916902542114,846.0
9.344633102416992,843.0
9.354598045349121,837.0
9.364630222320557,829.0
9.374297857284546,827.0
9.383750915527344,826.0
9.39449405670166,827.0
9.40442705154419,821.0
9.414602994918823,820.0
9.424345254898071,814.0
9.433906078338623,820.0
9.444869041442871,826.0
9.454812049865723,816.0
9.464587211608887,829.0
9.474399089813232,838.0
9.48390793800354,838.0
9.49435305595398,839.0
9.504136085510254,846.0
9.514128923416138,841.0
9.524222135543823,842.0
9.533829927444458,841.0
9.544515132904053,843.0
9.554971933364868,847.0
9.56464695930481,846.0
9.574415922164917,853.0
9.584155082702637,850.0
9.594062089920044,849.0
9.6039559841156,848.0
9.615163087844849,847.0
9.625026226043701,844.0
9.634754180908203,843.0
9.644392967224121,846.0
9.654855012893677,819.0
9.66461706161499,843.0
9.67434811592102,840.0
9.684047937393188,839.0
9.69396686553955,838.0
9.705013036727905,840.0
9.71517014503479,827.0
9.724967002868652,816.0
9.734822034835815,818.0
9.744824171066284,840.0
9.754804134368896,831.0
9.764570951461792,840.0
9.774399042129517,835.0
9.783911943435669,839.0
9.794672012329102,816.0
9.804728269577026,835.0
9.814614057540894,835.0
9.824362993240356,832.0
9.833897113800049,839.0
9.844772100448608,812.0
9.854733228683472,844.0
9.864590883255005,839.0
9.874336004257202,814.0
9.883937120437622,844.0
9.894483089447021,838.0
9.904131174087524,836.0
9.914590120315552,843.0
9.924354076385498,841.0
9.93471908569336,840.0
9.944574117660522,847.0
9.954538106918335,840.0
9.964569091796875,846.0
9.974475145339966,846.0
9.983987092971802,845.0
9.994778871536255,827.0
10.004672050476074,842.0
10.01459789276123,839.0
10.0243980884552,839.0
10.033955097198486,832.0
10.044645071029663,831.0
10.054456233978271,812.0
10.064563989639282,833.0
10.074403047561646,833.0
10.083965063095093,830.0
10.094738006591797,830.0
10.104300022125244,838.0
10.12147307395935,838.0
10.128673076629639,835.0
10.13535213470459,840.0
10.144211053848267,840.0
10.154275178909302,842.0
10.164645910263062,842.0
10.17439603805542,840.0
10.183954000473022,844.0
10.194906949996948,819.0
10.205380916595459,837.0
10.214093208312988,834.0
10.224558115005493,843.0
10.234319925308228,841.0
10.244282007217407,828.0
10.254326105117798,832.0
10.264610052108765,805.0
10.274496078491211,832.0
10.284118175506592,833.0
10.295034885406494,841.0
10.305413007736206,835.0
10.314078092575073,844.0
10.32437801361084,835.0
10.334256887435913,825.0
10.343945026397705,831.0
10.35508108139038,826.0
10.364634990692139,826.0
10.374408960342407,807.0
10.38416600227356,816.0
10.394123077392578,811.0
10.404020071029663,845.0
10.414647102355957,844.0
10.42441701889038,847.0
10.434140920639038,849.0
10.444023132324219,850.0
10.453913927078247,850.0
10.46457290649414,847.0
10.474369049072266,819.0
10.483978033065796,837.0
10.494891166687012,834.0
10.505437135696411,835.0
10.51413106918335,805.0
10.524538040161133,827.0
10.534318208694458,825.0
10.544195890426636,824.0
10.554090023040771,829.0
10.56601095199585,803.0
10.57466721534729,811.0
10.58447003364563,830.0
10.59453010559082,834.0
10.604590892791748,806.0
10.614583015441895,830.0
10.624474048614502,829.0
10.634105205535889,825.0
10.64415693283081,827.0
10.65415620803833,829.0
10.66464900970459,825.0
10.674312114715576,831.0
10.683884143829346,833.0
10.694751977920532,817.0
10.705259084701538,839.0
10.714068174362183,834.0
10.72450590133667,836.0
10.734008073806763,836.0
10.74393606185913,838.0
10.755141973495483,839.0
10.764101028442383,849.0
10.774595260620117,829.0
10.78414797782898,837.0
10.79405403137207,836.0
10.804135084152222,841.0
10.814600944519043,839.0
10.824202060699463,838.0
10.833814144134521,841.0
10.84506607055664,834.0
10.854633092880249,832.0
10.864630222320557,833.0
10.874332904815674,835.0
10.884083986282349,834.0
10.893912076950073,837.0
10.905060291290283,841.0
10.914639949798584,834.0
10.924263954162598,837.0
10.933876037597656,838.0
10.944761991500854,839.0
10.954829216003418,835.0
10.965155124664307,827.0
10.974817037582397,813.0
10.984642028808594,827.0
10.994387149810791,835.0
11.004422903060913,824.0
11.014609098434448,825.0
11.024250030517578,829.0
11.033919095993042,828.0
11.044777154922485,838.0
11.055237054824829,834.0
11.06385588645935,845.0
11.074411153793335,835.0
11.08398699760437,835.0
11.094956159591675,836.0
11.105447053909302,829.0
11.113976240158081,830.0
11.124611139297485,824.0
11.134501934051514,829.0
11.144392013549805,837.0
11.15431809425354,836.0
11.164611101150513,842.0
11.174297094345093,839.0
11.184005975723267,845.0
11.19490098953247,831.0
11.205394983291626,831.0
11.214061260223389,831.0
11.224453926086426,826.0
11.234020233154297,826.0
11.244921207427979,823.0
11.254746913909912,823.0
11.264568090438843,806.0
11.274315118789673,823.0
11.283796072006226,825.0
11.294528007507324,829.0
11.304413080215454,798.0
11.31458306312561,825.0
11.324281930923462,823.0
11.333738088607788,822.0
11.344096183776855,824.0
11.354088068008423,818.0
11.365818977355957,817.0
11.374487161636353,814.0
11.383990049362183,818.0
11.394910097122192,822.0
11.405420064926147,825.0
11.41392707824707,822.0
11.424418210983276,808.0
11.434208154678345,825.0
11.444270849227905,826.0
11.455013990402222,831.0
11.463568925857544,833.0
11.474395036697388,830.0
11.484089136123657,836.0
11.494115114212036,835.0
11.503992080688477,829.0
11.514064073562622,828.0
11.524677038192749,828.0
11.534515142440796,829.0
11.544359922409058,825.0
11.554424047470093,814.0
11.56461501121521,817.0
11.574053049087524,804.0
11.584728240966797,824.0
11.594733238220215,825.0
11.604803085327148,820.0
11.614544868469238,826.0
11.624389886856079,820.0
11.633956909179688,806.0
11.644846200942993,816.0
11.654896974563599,820.0
11.664531946182251,819.0
11.674435138702393,822.0
11.683964014053345,819.0
11.694903135299683,824.0
11.704550981521606,823.0
11.71459412574768,824.0
11.724297046661377,822.0
11.733771085739136,822.0
11.744073152542114,825.0
11.75474214553833,824.0
11.764563083648682,827.0
11.773937940597534,824.0
11.784559965133667,824.0
11.794405937194824,818.0
11.80440092086792,822.0
11.814610958099365,822.0
11.824263095855713,829.0
11.833749055862427,803.0
11.844582080841064,836.0
11.854531049728394,829.0
11.864542961120605,808.0
11.874588012695312,825.0
11.884212970733643,823.0
11.894221067428589,826.0
11.904131889343262,823.0
11.914546012878418,824.0
11.924290180206299,816.0
11.933917045593262,813.0
11.944769144058228,811.0
11.954692840576172,819.0
11.964536190032959,822.0
11.974430084228516,816.0
11.983927011489868,812.0
11.99472427368164,813.0
12.004691123962402,814.0
12.01454210281372,815.0
12.024394035339355,820.0
12.033995151519775,823.0
12.044893026351929,816.0
12.055322885513306,823.0
12.064110279083252,824.0
12.074510097503662,828.0
12.084191083908081,829.0
12.094339847564697,820.0
12.104403972625732,823.0
12.114588975906372,819.0
12.124321222305298,817.0
12.133884906768799,806.0
12.144833087921143,816.0
12.154765129089355,815.0
12.164541006088257,819.0
12.17442011833191,818.0
12.183954954147339,803.0
12.194904088973999,821.0
12.20481014251709,815.0
12.214638233184814,817.0
12.224325895309448,820.0
12.233867168426514,819.0
12.24465799331665,820.0
12.254613161087036,827.0
12.264549016952515,819.0
12.274269104003906,829.0
12.28373098373413,830.0
12.294443130493164,829.0
12.304133892059326,834.0
12.314544916152954,829.0
12.324396133422852,815.0
12.333933115005493,836.0
12.34472107887268,830.0
12.35471796989441,831.0
12.364544153213501,836.0
12.374369144439697,825.0
12.383912086486816,824.0
12.394532918930054,820.0
12.404475927352905,824.0
12.414530038833618,799.0
12.424021005630493,828.0
12.43471908569336,823.0
12.444607019424438,827.0
12.454514026641846,828.0
12.464558124542236,804.0
12.474232196807861,832.0
12.483793020248413,830.0
12.494814157485962,832.0
12.504880905151367,834.0
12.514615058898926,838.0
12.524373054504395,837.0
12.533982992172241,836.0
12.544890880584717,843.0
12.554819822311401,834.0
12.564596176147461,844.0
12.574324131011963,847.0
12.58391809463501,836.0
12.594742059707642,840.0
12.604958057403564,838.0
12.614528179168701,823.0
12.624284029006958,831.0
12.63376498222351,828.0
12.64449405670166,829.0
12.654325008392334,836.0
12.664541006088257,829.0
12.67432713508606,829.0
12.683828115463257,830.0
12.694760084152222,829.0
12.704728126525879,830.0
12.714606285095215,832.0
12.724396228790283,826.0
12.733947038650513,830.0
12.744838953018188,825.0
12.755322933197021,827.0
12.764025926589966,826.0
12.774183988571167,812.0
12.783782958984375,826.0
12.79465103149414,821.0
12.804590225219727,819.0
12.814564943313599,824.0
12.82436203956604,820.0
12.833894968032837,824.0
12.84487009048462,821.0
12.854880094528198,820.0
12.86453104019165,829.0
12.874344110488892,825.0
12.883801221847534,828.0
12.89450716972351,828.0
12.9045090675354,801.0
12.914552211761475,823.0
12.924227237701416,825.0
12.933722972869873,820.0
12.944173097610474,821.0
12.954076051712036,825.0
12.964558839797974,820.0
12.974333047866821,822.0
12.98390507698059,797.0
12.994648218154907,825.0
13.004545211791992,813.0
13.014562129974365,819.0
13.024278163909912,826.0
13.033731937408447,822.0
13.044456958770752,821.0
13.054456233978271,825.0
13.064541101455688,828.0
13.074355125427246,817.0
13.083791017532349,819.0
13.094522953033447,823.0
13.10407304763794,818.0
13.114562034606934,812.0
13.12432312965393,811.0
13.13379693031311,814.0
13.144582033157349,818.0
13.154635190963745,819.0
13.164544105529785,812.0
13.174458980560303,812.0
13.183944940567017,812.0
13.194732189178467,814.0
13.20461106300354,816.0
13.214572191238403,814.0
13.224354028701782,821.0
13.233927965164185,813.0
13.244758129119873,815.0
13.254607915878296,815.0
13.264573097229004,820.0
13.274131059646606,796.0
13.284765005111694,822.0
13.294573068618774,818.0
13.304434061050415,821.0
13.314513921737671,825.0
13.324270963668823,813.0
13.333744049072266,823.0
13.34405517578125,797.0
13.354766130447388,796.0
13.364552021026611,820.0
13.374198198318481,823.0
13.383606195449829,823.0
13.394366979598999,815.0
13.404297113418579,810.0
13.414529085159302,809.0
13.424236059188843,811.0
13.43367600440979,814.0
13.444493055343628,814.0
13.454348087310791,813.0
13.464540004730225,813.0
13.474220037460327,813.0
13.483650207519531,815.0
13.494338035583496,812.0
13.50406789779663,817.0
13.514513969421387,814.0
13.52431607246399,817.0
13.533725023269653,812.0
13.544411897659302,814.0
13.554304122924805,813.0
13.564556121826172,817.0
13.57426905632019,825.0
13.583692073822021,813.0
13.594370126724243,816.0
13.603782892227173,815.0
13.614521265029907,818.0
13.624190092086792,816.0
13.633726119995117,795.0
13.64450216293335,816.0
13.65428614616394,817.0
13.664510011672974,803.0
13.674316167831421,787.0
13.683825969696045,808.0
13.694627046585083,810.0
13.7051100730896,807.0
13.713892221450806,807.0
13.724360942840576,811.0
13.734102010726929,796.0
13.743860006332397,811.0
13.754587888717651,788.0
13.764573097229004,819.0
13.77430510520935,826.0
13.78385591506958,818.0
13.794731140136719,820.0
13.80479907989502,820.0
13.814544916152954,819.0
13.824308156967163,817.0
13.83388614654541,815.0
13.844782829284668,817.0
13.855334997177124,817.0
13.86402416229248,811.0
13.87452507019043,789.0
13.88416600227356,815.0
13.894005060195923,810.0
13.904962062835693,811.0
13.914553165435791,810.0
13.924195051193237,800.0
13.933722019195557,799.0
13.944520950317383,812.0
13.954395055770874,815.0
13.964543104171753,812.0
13.97424602508545,804.0
13.983731985092163,793.0
13.9944589138031,808.0
14.004317998886108,817.0
14.014523983001709,814.0
14.024375200271606,805.0
14.033926963806152,807.0
14.044557094573975,813.0
14.055071115493774,811.0
14.063723087310791,816.0
14.074381113052368,822.0
14.083964109420776,816.0
14.09470009803772,819.0
14.104674100875854,817.0
14.114553928375244,816.0
14.124436140060425,816.0
14.134125232696533,810.0
14.143893003463745,792.0
14.154768943786621,797.0
14.164543151855469,796.0
14.17424201965332,804.0
14.183778047561646,776.0
14.194639921188354,780.0
14.204568147659302,802.0
14.21452808380127,807.0
14.2243070602417,814.0
14.23378324508667,809.0
14.244537830352783,806.0
14.254441976547241,814.0
14.264526128768921,803.0
14.274180889129639,804.0
14.283772945404053,800.0
14.294723272323608,798.0
14.305496215820312,800.0
14.31432294845581,793.0
14.324514150619507,805.0
14.334158182144165,801.0
14.343906164169312,799.0
14.35488486289978,785.0
14.364531993865967,799.0
14.374377965927124,792.0
14.383913040161133,769.0
14.394576072692871,791.0
14.4044349193573,793.0
14.414529085159302,795.0
14.424221992492676,793.0
14.433670997619629,796.0
14.444423913955688,801.0
14.454282999038696,798.0
14.464529037475586,806.0
14.474231243133545,787.0
14.483657121658325,807.0
14.494269132614136,785.0
14.504375219345093,806.0
14.51455307006836,806.0
14.52425503730774,807.0
14.533849954605103,803.0
14.544817924499512,803.0
14.554728984832764,801.0
14.564569234848022,797.0
14.574221134185791,803.0
14.583690166473389,801.0
14.594167232513428,802.0
14.60512399673462,804.0
14.614064931869507,803.0
14.62435007095337,804.0
14.63387393951416,804.0
14.644653081893921,802.0
14.654574871063232,808.0
14.664515972137451,805.0
14.674243211746216,807.0
14.683726072311401,806.0
14.69449496269226,780.0
14.704865217208862,807.0
14.71449089050293,806.0
14.724266052246094,807.0
14.73373007774353,803.0
14.74452519416809,804.0
14.753888130187988,807.0
14.764543056488037,803.0
14.7742280960083,794.0
14.78377103805542,808.0
14.794728994369507,812.0
14.804675102233887,808.0
14.81452202796936,815.0
14.824285984039307,815.0
14.833750009536743,822.0
14.844527006149292,820.0
14.85436201095581,825.0
14.864506006240845,821.0
14.874169111251831,817.0
14.88368010520935,813.0
14.8941969871521,805.0
14.904078960418701,806.0
14.914499044418335,802.0
14.924232006072998,802.0
14.933622121810913,808.0
14.944035053253174,806.0
14.954767942428589,805.0
14.964514255523682,805.0
14.974244117736816,800.0
14.98371696472168,803.0
14.994285106658936,804.0
15.004255056381226,800.0
15.014555931091309,804.0
15.02418303489685,792.0
15.033698081970215,801.0
15.044347047805786,801.0
15.054208040237427,804.0
15.06452989578247,798.0
15.074222087860107,800.0
15.08365797996521,784.0
15.094473123550415,793.0
15.1040940284729,792.0
15.113684177398682,771.0
15.12438416481018,774.0
15.1339111328125,791.0
15.144856214523315,791.0
15.154772996902466,792.0
15.164565086364746,785.0
15.174345970153809,788.0
15.183850049972534,798.0
15.194597005844116,807.0
15.204440116882324,804.0
15.214576005935669,806.0
15.224286079406738,779.0
15.233829021453857,807.0
15.244200944900513,809.0
15.254096031188965,814.0
15.26451301574707,814.0
15.274266958236694,816.0
15.283753156661987,813.0
15.294610977172852,807.0
15.304372072219849,803.0
15.314527034759521,805.0
15.324334144592285,801.0
15.333779096603394,799.0
15.344687938690186,805.0
15.354665994644165,794.0
15.364496946334839,796.0
15.37435007095337,796.0
15.38378095626831,771.0
15.394521951675415,793.0
15.404313087463379,796.0
15.414486169815063,797.0
15.424227237701416,801.0
15.433706045150757,806.0
15.444437026977539,782.0
15.454355001449585,810.0
15.464509010314941,806.0
15.4743492603302,812.0
15.48384690284729,813.0
15.494585990905762,803.0
15.504081010818481,813.0
15.514531135559082,813.0
15.524229049682617,810.0
15.533689975738525,811.0
15.54446816444397,786.0
15.554450988769531,819.0
15.56453800201416,817.0
15.574272155761719,813.0
15.583769083023071,818.0
15.594572067260742,820.0
15.60451626777649,825.0
15.614512920379639,830.0
15.624211072921753,818.0
15.633681058883667,820.0
15.644404172897339,814.0
15.654237031936646,786.0
15.664530038833618,784.0
15.674226999282837,810.0
15.683755159378052,810.0
15.694535970687866,815.0
15.704456090927124,812.0
15.714492082595825,815.0
15.724300146102905,811.0
15.733768939971924,791.0
15.744498014450073,820.0
15.754353046417236,809.0
15.764526844024658,818.0
15.774339199066162,812.0
15.783812999725342,820.0
15.794539213180542,817.0
15.804490089416504,818.0
15.814507007598877,813.0
15.824372053146362,816.0
15.833952188491821,810.0
15.844803094863892,807.0
15.85470700263977,811.0
15.864474058151245,804.0
15.874231100082397,806.0
15.883693218231201,786.0
15.894402027130127,803.0
15.904093980789185,802.0
15.914527177810669,806.0
15.92422103881836,808.0
15.933611154556274,807.0
15.944332122802734,812.0
15.954149961471558,808.0
15.964505195617676,809.0
15.97421908378601,810.0
15.983641147613525,809.0
15.994392156600952,811.0
16.004276990890503,812.0
16.01455020904541,795.0
16.024111032485962,820.0
16.033653020858765,817.0
16.044562101364136,821.0
16.05456304550171,820.0
16.06450891494751,816.0
16.07435703277588,821.0
16.0838680267334,815.0
16.094476222991943,817.0
16.104323863983154,819.0
16.114495992660522,818.0
16.124270915985107,822.0
16.133865118026733,816.0
16.14466118812561,786.0
16.154625177383423,812.0
16.164509057998657,806.0
16.174354076385498,809.0
16.18379497528076,816.0
16.19468116760254,816.0
16.20468807220459,811.0
16.214506149291992,815.0
16.224323272705078,814.0
16.233781099319458,817.0
16.244152069091797,811.0
16.254069089889526,813.0
16.26451301574707,810.0
16.27427315711975,790.0
16.28375506401062,824.0
16.294638872146606,819.0
16.30509114265442,822.0
16.31378412246704,821.0
16.324424982070923,803.0
16.334192037582397,797.0
16.343948125839233,823.0
16.355014085769653,827.0
16.36449909210205,824.0
16.374377012252808,807.0
16.38396120071411,796.0
16.3947811126709,816.0
16.404760122299194,813.0
16.414582014083862,812.0
16.42434597015381,809.0
16.434006214141846,789.0
16.44498586654663,811.0
16.454938888549805,811.0
16.46448588371277,807.0
16.474393129348755,809.0
16.483922004699707,811.0
16.4947452545166,786.0
16.504421949386597,806.0
16.514538049697876,801.0
16.524356842041016,802.0
16.534203052520752,805.0
16.544347047805786,797.0
16.55434012413025,799.0
16.5645170211792,799.0
16.57439398765564,803.0
16.583980083465576,806.0
16.594897985458374,807.0
16.605340003967285,805.0
16.614033937454224,809.0
16.624511003494263,811.0
16.634132146835327,807.0
16.644055128097534,796.0
16.65530300140381,790.0
16.664501190185547,800.0
16.67410111427307,801.0
16.683665990829468,801.0
16.694501876831055,779.0
16.704050064086914,786.0
16.714506149291992,787.0
16.72425103187561,806.0
16.73375701904297,804.0
16.74459195137024,806.0
16.754521131515503,806.0
16.76449203491211,811.0
16.77424907684326,822.0
16.78380799293518,822.0
16.794682025909424,817.0
16.804594039916992,813.0
16.814491033554077,812.0
16.82434582710266,800.0
16.833853006362915,809.0
16.844603061676025,792.0
16.854429006576538,804.0
16.864500999450684,808.0
16.874276161193848,781.0
16.883708000183105,805.0
16.894449949264526,808.0
16.90432596206665,802.0
16.914493083953857,798.0
16.924221992492676,803.0
16.93366503715515,804.0
16.944053173065186,806.0
16.95471215248108,806.0
16.96448802947998,807.0
16.97431993484497,807.0
16.983822107315063,809.0
16.994704961776733,809.0
17.004560947418213,812.0
17.014517068862915,811.0
17.024292945861816,811.0
17.033781051635742,790.0
17.044739246368408,808.0
17.054589986801147,809.0
17.064473867416382,808.0
17.074340105056763,807.0
17.083786010742188,799.0
17.09453797340393,780.0
17.10407519340515,810.0
17.11451506614685,814.0
17.12422513961792,807.0
17.133674144744873,806.0
17.144503116607666,808.0
17.15443992614746,806.0
17.164557218551636,788.0
17.174201250076294,806.0
17.183776140213013,786.0
17.19425106048584,804.0
17.20422887802124,800.0
17.214519023895264,797.0
17.22430109977722,796.0
17.233825206756592,794.0
17.24461817741394,800.0
17.254553079605103,803.0
17.264490127563477,780.0
17.27424907684326,805.0
17.283703088760376,803.0
17.294575929641724,804.0
17.30441927909851,804.0
17.31456208229065,804.0
17.324198961257935,805.0
17.334017038345337,797.0
17.34386706352234,793.0
17.354713201522827,796.0
17.36450219154358,802.0
17.374454021453857,795.0
17.383965015411377,793.0
17.394866943359375,772.0
17.405206203460693,798.0
17.41391396522522,777.0
17.424319982528687,787.0
17.43387508392334,800.0
17.4447181224823,790.0
17.455149173736572,787.0
17.463747262954712,787.0
17.474236011505127,784.0
17.483769178390503,781.0
17.494627237319946,787.0
17.504042148590088,788.0
17.514594078063965,789.0
17.52420401573181,800.0
17.533932209014893,798.0
17.544400930404663,803.0
17.554262161254883,804.0
17.564486980438232,804.0
17.574259042739868,806.0
17.58374786376953,806.0
17.594627141952515,815.0
17.60505700111389,804.0
17.613912105560303,804.0
17.624366283416748,804.0
17.63389492034912,794.0
17.644684076309204,795.0
17.65504813194275,803.0
17.664461135864258,813.0
17.67430305480957,811.0
17.683856964111328,817.0
17.69454288482666,818.0
17.70430016517639,820.0
17.714471101760864,817.0
17.72422194480896,808.0
17.733722925186157,811.0
17.744513034820557,803.0
17.75445008277893,799.0
17.76449203491211,770.0
17.774217128753662,796.0
17.78369688987732,794.0
17.794404983520508,801.0
17.804267168045044,792.0
17.814488172531128,802.0
17.824181079864502,793.0
17.833651065826416,802.0
17.844324111938477,795.0
17.854042053222656,803.0
17.864480018615723,803.0
17.874232053756714,778.0
17.883759021759033,801.0
17.89452290534973,803.0
17.905147075653076,800.0
17.913842916488647,803.0
17.924206256866455,775.0
17.933722972869873,804.0
17.944483280181885,804.0
17.954282999038696,807.0
17.964482069015503,784.0
17.97421908378601,807.0
17.983702182769775,799.0
17.994465112686157,804.0
18.00426197052002,806.0
18.01450514793396,800.0
18.02423620223999,804.0
18.033700227737427,805.0
18.044462203979492,808.0
18.054346084594727,799.0
18.06452512741089,795.0
18.074206113815308,798.0
18.083971977233887,806.0
18.094921112060547,804.0
18.10535192489624,806.0
18.114001035690308,803.0
18.124489068984985,808.0
18.13419008255005,802.0
18.14403796195984,796.0
18.154829263687134,792.0
18.164474964141846,779.0
18.174355030059814,789.0
18.183861017227173,794.0
18.19481611251831,799.0
18.20530414581299,795.0
18.214011907577515,797.0
18.224476099014282,806.0
18.234062910079956,802.0
18.244868993759155,802.0
18.255288124084473,802.0
18.263979196548462,796.0
18.274346113204956,810.0
18.28382706642151,809.0
18.294594049453735,813.0
18.304067134857178,813.0
18.314471006393433,812.0
18.324130058288574,805.0
18.333567142486572,808.0
18.344256162643433,809.0
18.35411310195923,810.0
18.36448383331299,811.0
18.37420392036438,809.0
18.383584022521973,808.0
18.394370079040527,807.0
18.4043231010437,802.0
18.414507150650024,805.0
18.424134016036987,807.0
18.433614253997803,780.0
18.44434905052185,801.0
18.45421004295349,807.0
18.464478015899658,809.0
18.474202871322632,810.0
18.48369312286377,812.0
18.494460105895996,806.0
18.504204034805298,809.0
18.514461040496826,811.0
18.524317026138306,811.0
18.53377604484558,808.0
18.544517993927002,812.0
18.554457902908325,808.0
18.56452989578247,812.0
18.574147939682007,786.0
18.583760976791382,812.0
18.59463620185852,818.0
18.60463809967041,815.0
18.61444616317749,810.0
18.624215126037598,811.0
18.63368511199951,824.0
18.644505262374878,815.0
18.654480934143066,816.0
18.66397213935852,815.0
18.674330949783325,813.0
18.683800220489502,815.0
18.694591999053955,781.0
18.704089879989624,801.0
18.713857173919678,801.0
18.724395036697388,796.0
18.73392915725708,802.0
18.74484610557556,801.0
18.755274057388306,801.0
18.763972997665405,798.0
18.7743182182312,798.0
18.783790111541748,776.0
18.794509172439575,800.0
18.804359912872314,800.0
18.81448984146118,809.0
18.824219942092896,776.0
18.833834171295166,799.0
18.844698905944824,800.0
18.855147123336792,793.0
18.86388111114502,779.0
18.87438702583313,797.0
18.883909940719604,798.0
18.894893169403076,795.0
18.904798984527588,797.0
18.91447901725769,801.0
18.92423105239868,798.0
18.933650970458984,808.0
18.94403100013733,799.0
18.954704999923706,799.0
18.964482069015503,801.0
18.97430992126465,801.0
18.983793020248413,796.0
18.99462103843689,771.0
19.00459909439087,799.0
19.01462197303772,800.0
19.024292945861816,774.0
19.033863067626953,803.0
19.04480504989624,807.0
19.055155038833618,804.0
19.06396508216858,796.0
19.074602127075195,807.0
19.084160089492798,802.0
19.09392809867859,803.0
19.1050021648407,807.0
19.11446499824524,793.0
19.124380111694336,795.0
19.133962154388428,794.0
19.14497423171997,793.0
19.154614210128784,798.0
19.164504051208496,786.0
19.17441415786743,799.0
19.183961868286133,800.0
19.194765090942383,802.0
19.204682111740112,803.0
19.214482069015503,798.0
19.224259853363037,809.0
19.23384714126587,805.0
19.244858026504517,803.0
19.254860162734985,799.0
19.26445508003235,797.0
19.274287939071655,799.0
19.283817052841187,800.0
19.294398069381714,800.0
19.30454993247986,800.0
19.314460039138794,799.0
19.324355840682983,775.0
19.333881855010986,798.0
19.34471106529236,798.0
19.354605197906494,772.0
19.364426136016846,803.0
19.374222993850708,797.0
19.383721113204956,802.0
19.39419412612915,803.0
19.404019117355347,802.0
19.414459943771362,797.0
19.424203157424927,797.0
19.433711051940918,792.0
19.444409132003784,792.0
19.454323053359985,770.0
19.464471101760864,783.0
19.47436022758484,771.0
19.483901023864746,798.0
19.494691133499146,793.0
19.504576206207275,805.0
19.51445508003235,779.0
19.5242440700531,797.0
19.533740043640137,806.0
19.54447603225708,784.0
19.554314136505127,802.0
19.564455032348633,804.0
19.574268102645874,803.0
19.583706855773926,777.0
19.594446897506714,806.0
19.604259252548218,808.0
19.614445209503174,813.0
19.62417221069336,803.0
19.63364315032959,806.0
19.644203186035156,774.0
19.654095888137817,804.0
19.664463996887207,801.0
19.674201250076294,774.0
19.68373727798462,795.0
19.694103240966797,791.0
19.704030990600586,790.0
19.7144992351532,779.0
19.72423815727234,793.0
19.733834981918335,791.0
19.744728088378906,792.0
19.754600048065186,794.0
19.764448165893555,797.0
19.774281978607178,803.0
19.78386902809143,807.0
19.794825077056885,807.0
19.80542302131653,810.0
19.81402087211609,811.0
19.82438611984253,812.0
19.83404016494751,817.0
19.843850135803223,807.0
19.855000257492065,814.0
19.864464044570923,811.0
19.874386072158813,811.0
19.884034156799316,815.0
19.89389181137085,808.0
19.904942274093628,812.0
19.914469957351685,787.0
19.92440104484558,808.0
19.934153079986572,807.0
19.943958044052124,808.0
19.95396113395691,801.0
19.96445608139038,800.0
19.974221229553223,803.0
19.983811855316162,781.0
19.994832038879395,801.0
20.0053288936615,782.0
20.01403021812439,777.0
20.02459192276001,804.0
20.034253120422363,802.0
20.044204235076904,807.0
20.054232120513916,810.0
20.06450605392456,808.0
20.074198007583618,813.0
20.083842039108276,817.0
20.094881057739258,814.0
20.105305194854736,816.0
20.114005088806152,811.0
20.124311208724976,818.0
20.133931159973145,812.0
20.14487099647522,810.0
20.154747009277344,813.0
20.16448211669922,818.0
20.17430090904236,806.0
20.183812856674194,796.0
20.19466495513916,795.0
20.205127954483032,795.0
20.21386408805847,794.0
20.224370002746582,792.0
20.233860969543457,797.0
20.24467706680298,802.0
20.254597902297974,798.0
20.264437198638916,798.0
20.27405285835266,799.0
20.284647941589355,793.0
20.294536113739014,796.0
20.30411410331726,792.0
20.31453013420105,798.0
20.324270248413086,794.0
20.333933115005493,797.0
20.34479022026062,803.0
20.355195999145508,801.0
20.36395812034607,801.0
20.374479055404663,799.0
20.384072065353394,795.0
20.39387011528015,800.0
20.40496587753296,796.0
20.41451096534729,790.0
20.42422103881836,791.0
20.433858156204224,793.0
20.44387412071228,788.0
20.454875946044922,790.0
20.46449112892151,791.0
20.474302053451538,798.0
20.48386788368225,797.0
20.494457244873047,798.0
20.5047869682312,797.0
20.514491081237793,799.0
20.524292945861816,800.0
20.53375506401062,800.0
20.54465103149414,799.0
20.55452013015747,807.0
20.564441919326782,801.0
20.574350833892822,803.0
20.584033012390137,794.0
20.593826055526733,800.0
20.605062007904053,793.0
20.614439010620117,798.0
20.624269247055054,796.0
20.6337890625,800.0
20.644691944122314,800.0
20.6551251411438,795.0
20.66388702392578,791.0
20.67438507080078,795.0
20.683918237686157,796.0
20.69488501548767,799.0
20.70481586456299,793.0
20.714455127716064,792.0
20.724206924438477,798.0
20.733723878860474,798.0
20.744554042816162,804.0
20.754592180252075,801.0
20.764472246170044,807.0
20.774420022964478,808.0
20.783984899520874,817.0
20.794743061065674,809.0
20.804696083068848,816.0
20.814446926116943,813.0
20.824125051498413,794.0
20.833688259124756,813.0
20.844475030899048,811.0
20.855098962783813,819.0
20.863871097564697,809.0
20.87455916404724,811.0
20.88425922393799,806.0
20.893882989883423,811.0
20.90500521659851,812.0
20.914473056793213,813.0
20.924394130706787,806.0
20.934056043624878,808.0
20.94486904144287,804.0
20.954888105392456,803.0
20.964419841766357,799.0
20.97433090209961,778.0
20.98385214805603,793.0
20.994662046432495,795.0
21.004727125167847,798.0
21.01443314552307,802.0
21.024231910705566,806.0
21.03376007080078,805.0
21.044525146484375,800.0
21.054442167282104,775.0
21.06445813179016,792.0
21.07426905632019,790.0
21.083718061447144,788.0
21.09451913833618,784.0
21.104025840759277,783.0
21.114418029785156,782.0
21.12427806854248,776.0
21.133800983428955,775.0
21.144526958465576,785.0
21.1544132232666,762.0
21.164491176605225,780.0
21.174246072769165,788.0
21.183799028396606,785.0
21.194629907608032,787.0
21.20455813407898,785.0
21.21444320678711,756.0
21.224343061447144,771.0
21.233886003494263,788.0
21.244709968566895,788.0
21.25459313392639,762.0
21.26445508003235,788.0
21.274274110794067,784.0
21.28377103805542,781.0
21.294594049453735,783.0
21.30455708503723,787.0
21.31444525718689,766.0
21.324366092681885,797.0
21.333848237991333,797.0
21.344600200653076,795.0
21.354488134384155,764.0
21.36442494392395,791.0
21.374193906784058,787.0
21.38366389274597,788.0
21.394315004348755,783.0
21.404145002365112,790.0
21.414500951766968,780.0
21.424169063568115,784.0
21.43370294570923,769.0
21.444548845291138,749.0
21.454574823379517,769.0
21.46446919441223,769.0
21.47428607940674,776.0
21.483768224716187,776.0
21.494487047195435,777.0
21.504106044769287,788.0
21.514461040496826,767.0
21.52431321144104,787.0
21.534155130386353,793.0
21.543977975845337,797.0
21.555108070373535,800.0
21.56445813179016,797.0
21.574421167373657,805.0
21.583981037139893,805.0
21.594754219055176,811.0
21.604830980300903,814.0
21.614439964294434,811.0
21.624366283416748,806.0
21.63402009010315,804.0
21.64387011528015,804.0
21.654905080795288,776.0
21.664438009262085,801.0
21.674188137054443,795.0
21.683714151382446,794.0
21.694406986236572,796.0
21.70425510406494,792.0
21.71444606781006,801.0
21.724163055419922,792.0
21.733684062957764,800.0
21.744479179382324,802.0
21.75438904762268,800.0
21.764524221420288,808.0
21.774214029312134,802.0
21.783710956573486,789.0
21.794640064239502,807.0
21.80511713027954,809.0
21.813885927200317,805.0
21.824249267578125,809.0
21.833714962005615,808.0
21.844462871551514,811.0
21.85433006286621,809.0
21.864436149597168,814.0
21.874251127243042,812.0
21.883860111236572,805.0
21.89483904838562,808.0
21.904762029647827,811.0
21.914465188980103,781.0
21.924363136291504,807.0
21.934149980545044,810.0
21.94394087791443,806.0
21.953882932662964,786.0
21.964492082595825,806.0
21.9741849899292,810.0
21.983766078948975,812.0
21.99474310874939,805.0
22.004863023757935,806.0
22.014461040496826,796.0
22.024439096450806,804.0
22.034090042114258,808.0
22.043904066085815,810.0
22.05493402481079,807.0
22.064438104629517,807.0
22.074156045913696,809.0
22.08362913131714,809.0
22.094349145889282,808.0
22.104164123535156,805.0
22.114423036575317,804.0
22.12419629096985,798.0
22.133639097213745,800.0
22.14436626434326,801.0
22.154189109802246,801.0
22.164443016052246,809.0
22.174344062805176,801.0
22.1838800907135,787.0
22.19467806816101,800.0
22.20473599433899,802.0
22.214465141296387,800.0
22.224113941192627,801.0
22.233572244644165,805.0
22.24436902999878,799.0
22.254394054412842,802.0
22.264413118362427,804.0
22.274347066879272,807.0
22.283880949020386,805.0
22.294815063476562,789.0
22.30483889579773,804.0
22.31444001197815,797.0
22.32421112060547,798.0
22.333679914474487,802.0
22.344462871551514,795.0
22.354570150375366,800.0
22.3644380569458,801.0
22.374282121658325,813.0
22.383805990219116,801.0
22.394511938095093,803.0
22.404415130615234,801.0
22.41442584991455,811.0
22.4242582321167,802.0
22.43370008468628,802.0
22.44438624382019,797.0
22.454214096069336,796.0
22.464417219161987,796.0
22.474173069000244,797.0
22.483686923980713,795.0
22.494214057922363,797.0
22.504188060760498,795.0
22.51442790031433,785.0
22.524161100387573,792.0
22.533618927001953,790.0
22.54402995109558,791.0
22.554007053375244,760.0
22.56441307067871,767.0
22.574336051940918,781.0
22.583972215652466,785.0
22.59479808807373,787.0
22.604795932769775,785.0
22.61444616317749,787.0
22.624217987060547,780.0
22.633666038513184,785.0
22.644423961639404,757.0
22.654306173324585,772.0
22.664467096328735,757.0
22.67411208152771,776.0
22.683670043945312,777.0
22.694247007369995,785.0
22.704129219055176,782.0
22.71448826789856,783.0
22.724308967590332,783.0
22.733827114105225,783.0
22.744879961013794,789.0
22.755447149276733,789.0
22.763943910598755,790.0
22.774510145187378,781.0
22.78416419029236,791.0
22.794256925582886,789.0
22.80414390563965,784.0
22.814467191696167,782.0
22.82426905632019,785.0
22.83393692970276,783.0
22.84493613243103,775.0
22.85479211807251,790.0
22.86444115638733,764.0
22.874271154403687,788.0
22.883919954299927,786.0
22.894880056381226,762.0
22.905344009399414,755.0
22.914000988006592,752.0
22.92400598526001,772.0
22.933619022369385,774.0
22.94404625892639,775.0
22.95414900779724,777.0
22.964471101760864,776.0
22.974268913269043,780.0
22.983834981918335,781.0
22.994850158691406,779.0
23.00533103942871,785.0
23.013913869857788,786.0
23.024351119995117,792.0
23.033957958221436,791.0
23.044791221618652,794.0
23.054746866226196,788.0
23.06444025039673,793.0
23.074159860610962,787.0
23.08359718322754,790.0
23.094356060028076,795.0
23.104016065597534,789.0
23.11443591117859,788.0
23.124158143997192,788.0
23.133676052093506,786.0
23.144541025161743,785.0
23.154542922973633,789.0
23.164433002471924,768.0
23.17430090904236,798.0
23.183856964111328,785.0
23.194542169570923,767.0
23.204578161239624,785.0
23.214948177337646,788.0
23.224393129348755,787.0
23.233964204788208,786.0
23.244863986968994,784.0
23.255385875701904,787.0
23.263918161392212,790.0
23.274434089660645,790.0
23.2842800617218,787.0
23.294228076934814,764.0
23.304131984710693,768.0
23.314526081085205,785.0
23.32416319847107,785.0
23.333884954452515,787.0
23.344909191131592,786.0
23.354835987091064,784.0
23.364416122436523,786.0
23.374502897262573,794.0
23.384398937225342,791.0
23.394640922546387,793.0
23.40523409843445,794.0
23.413876056671143,791.0
23.42432689666748,791.0
23.433907985687256,789.0
23.443502187728882,792.0
23.454598903656006,790.0
23.464412927627563,785.0
23.474051237106323,787.0
23.483683109283447,784.0
23.494642972946167,779.0
23.50420904159546,776.0
23.51387906074524,775.0
23.524383068084717,775.0
23.534058094024658,751.0
23.54487419128418,778.0
23.55490517616272,775.0
23.564452171325684,750.0
23.57429790496826,760.0
23.583770990371704,787.0
23.5945942401886,789.0
23.604450225830078,795.0
23.614404916763306,792.0
23.62423610687256,803.0
23.633719205856323,801.0
23.644572019577026,797.0
23.654521226882935,791.0
23.664411067962646,795.0
23.674190282821655,800.0
23.68360924720764,795.0
23.694233179092407,795.0
23.704119205474854,798.0
23.714412212371826,793.0
23.724200963974,791.0
23.733638048171997,792.0
23.744025945663452,786.0
23.754655122756958,785.0
23.764419078826904,781.0
23.774217128753662,783.0
23.78368306159973,783.0
23.794517993927002,784.0
23.804614067077637,786.0
23.814435243606567,788.0
23.824219942092896,786.0
23.833763122558594,760.0
23.84435200691223,784.0
23.854379177093506,764.0
23.86446714401245,785.0
23.874168157577515,792.0
23.88385319709778,790.0
23.89374589920044,774.0
23.904834032058716,790.0
23.914993047714233,769.0
23.92451786994934,768.0
23.934293031692505,796.0
23.944175958633423,794.0
23.953979015350342,796.0
23.964974880218506,790.0
23.974947214126587,793.0
23.984719038009644,787.0
23.99467706680298,787.0
24.00513005256653,780.0
24.01390814781189,786.0
24.024574995040894,788.0
24.03425121307373,786.0
24.044312238693237,781.0
24.05437207221985,766.0
24.064433097839355,785.0
24.074084281921387,787.0
24.08359408378601,791.0
24.094608068466187,788.0
24.10460615158081,790.0
24.114502906799316,785.0
24.12402105331421,792.0
24.134732007980347,787.0
24.14464497566223,786.0
24.15453600883484,790.0
24.1649329662323,790.0
24.174431085586548,791.0
24.183980226516724,788.0
24.194862842559814,787.0
24.205286979675293,785.0
24.213891983032227,789.0
24.224241018295288,789.0
24.233704090118408,785.0
24.244449138641357,784.0
24.25430727005005,787.0
24.264387845993042,785.0
24.27430510520935,786.0
24.283871173858643,784.0
24.294913053512573,787.0
24.305094003677368,787.0
24.314470052719116,765.0
24.32429599761963,786.0
24.333991050720215,792.0
24.34384799003601,794.0
24.354905128479004,784.0
24.364394187927246,799.0
24.374238967895508,797.0
24.38374900817871,793.0
24.3945369720459,788.0
24.4044771194458,782.0
24.414436101913452,768.0
24.424335956573486,793.0
24.434107065200806,795.0
24.44398283958435,794.0
24.454020977020264,796.0
24.46440100669861,781.0
24.474169969558716,785.0
24.483678102493286,785.0
24.49453592300415,784.0
24.504647970199585,786.0
24.51444411277771,793.0
24.52420997619629,787.0
24.533772230148315,776.0
24.544756174087524,790.0
24.554664134979248,792.0
24.56445288658142,784.0
24.57419514656067,791.0
24.58367896080017,792.0
24.594428062438965,798.0
24.604437112808228,796.0
24.61436700820923,792.0
24.6241512298584,790.0
24.633594036102295,795.0
24.644248247146606,791.0
24.654184103012085,798.0
24.66438317298889,794.0
24.67409896850586,796.0
24.683595180511475,792.0
24.69432306289673,788.0
24.70411205291748,794.0
24.714452981948853,783.0
24.724160194396973,786.0
24.73364520072937,781.0
24.74445915222168,777.0
24.754446268081665,783.0
24.76442813873291,779.0
24.77431607246399,781.0
24.78395700454712,777.0
24.794821977615356,777.0
24.80505609512329,779.0
24.813878059387207,765.0
24.82441806793213,739.0
24.834030866622925,764.0
24.843860149383545,766.0
24.85509204864502,739.0
24.86446213722229,765.0
24.87402606010437,762.0
24.883617162704468,771.0
24.894625186920166,769.0
24.904662132263184,769.0
24.915069103240967,768.0
24.924386024475098,745.0
24.934052228927612,743.0
24.943827152252197,765.0
24.954736948013306,769.0
24.965008974075317,777.0
24.974339962005615,776.0
24.984091997146606,778.0
24.99414610862732,780.0
25.004739999771118,773.0
25.014432191848755,772.0
25.024140119552612,777.0
25.034106969833374,775.0
25.044206857681274,766.0
25.05404019355774,779.0
25.064484119415283,773.0
25.074185132980347,771.0
25.08371591567993,774.0
25.094438076019287,772.0
25.10402202606201,774.0
25.11441707611084,763.0
25.124173164367676,771.0
25.13367199897766,773.0
25.14439105987549,764.0
25.154210090637207,766.0
25.164375066757202,764.0
25.17420506477356,766.0
25.18370008468628,766.0
25.194525957107544,771.0
25.204506874084473,774.0
25.214417934417725,777.0
25.224270820617676,777.0
25.23390817642212,781.0
25.244803190231323,782.0
25.254791975021362,788.0
25.264398097991943,789.0
25.27434802055359,790.0
25.283983945846558,776.0
25.294783115386963,792.0
25.30524206161499,769.0
25.313907146453857,800.0
25.324520111083984,792.0
25.33432412147522,770.0
25.344340085983276,791.0
25.354307889938354,795.0
25.364472150802612,791.0
25.374393939971924,796.0
25.384142875671387,771.0
25.394325017929077,793.0
25.404320001602173,795.0
25.41442108154297,795.0
25.42431116104126,800.0
25.433985233306885,782.0
25.443930864334106,804.0
25.45392894744873,783.0
25.464442014694214,776.0
25.47412610054016,794.0
25.483875274658203,793.0
25.494819164276123,796.0
25.505260229110718,796.0
25.51388192176819,799.0
25.524240970611572,793.0
25.533715963363647,795.0
25.54429602622986,787.0
25.55414891242981,762.0
25.564382076263428,797.0
25.574207067489624,789.0
25.58367896080017,788.0
25.594459056854248,761.0
25.6043701171875,786.0
25.614381074905396,792.0
25.624155044555664,793.0
25.633629083633423,794.0
25.644350051879883,790.0
25.654181957244873,791.0
25.664387941360474,790.0
25.674152135849,789.0
25.683661222457886,801.0
25.69440221786499,791.0
25.70424509048462,788.0
25.714385986328125,788.0
25.7241370677948,789.0
25.73362112045288,785.0
25.743963956832886,790.0
25.754669189453125,790.0
25.76435685157776,788.0
25.774191856384277,788.0
25.783727884292603,789.0
25.79449200630188,788.0
25.804437160491943,789.0
25.814391136169434,788.0
25.82414698600769,774.0
25.833664178848267,788.0
25.844457149505615,791.0
25.85431408882141,784.0
25.86441707611084,788.0
25.874134063720703,787.0
25.8835711479187,792.0
25.894269943237305,783.0
25.90401005744934,794.0
25.914404153823853,787.0
25.924078941345215,786.0
25.933573961257935,779.0
25.94435214996338,756.0
25.954246997833252,779.0
25.964393138885498,784.0
25.9738130569458,787.0
25.98436689376831,778.0
25.994126081466675,788.0
26.004074096679688,781.0
26.01440691947937,787.0
26.024153232574463,779.0
26.03364109992981,783.0
26.04442596435547,783.0
26.054269075393677,779.0
26.064366102218628,781.0
26.074124097824097,776.0
26.083580017089844,781.0
26.0942542552948,780.0
26.104089975357056,779.0
26.114389181137085,773.0
26.124197006225586,754.0
26.13369393348694,752.0
26.14452624320984,773.0
26.15439796447754,779.0
26.164381980895996,780.0
26.17415499687195,783.0
26.18366289138794,764.0
26.19446897506714,780.0
26.204324960708618,786.0
26.214372873306274,783.0
26.224215030670166,767.0
26.233772039413452,787.0
26.244595050811768,773.0
26.254579067230225,778.0
26.26439905166626,777.0
26.274296045303345,763.0
26.283859968185425,749.0
26.294787168502808,776.0
26.304765939712524,778.0
26.314499855041504,778.0
26.3242130279541,780.0
26.333822011947632,782.0
26.344940185546875,782.0
26.354603052139282,778.0
26.364989042282104,779.0
26.374407052993774,753.0
26.384047985076904,776.0
26.39415192604065,783.0
26.404103994369507,775.0
26.414390087127686,775.0
26.42408514022827,781.0
26.433773040771484,752.0
26.44487714767456,772.0
26.455400943756104,772.0
26.463953018188477,776.0
26.47443699836731,773.0
26.48400902748108,765.0
26.493954181671143,773.0
26.504122018814087,767.0
26.51438808441162,773.0
26.524147987365723,775.0
26.53363800048828,772.0
26.544419050216675,773.0
26.55438494682312,772.0
26.56439518928528,772.0
26.574162006378174,773.0
26.583742141723633,768.0
26.59463620185852,769.0
26.604622840881348,775.0
26.614376068115234,778.0
26.624377965927124,784.0
26.63397216796875,781.0
26.643925189971924,786.0
26.654063940048218,784.0
26.66437315940857,779.0
26.674158096313477,781.0
26.683876276016235,781.0
26.69489598274231,787.0
26.70503520965576,780.0
26.714378118515015,782.0
26.724459171295166,784.0
26.734050035476685,778.0
26.743905067443848,769.0
26.754882097244263,769.0
26.764376163482666,766.0
26.77429509162903,770.0
26.78384494781494,770.0
26.794692993164062,762.0
26.80514097213745,768.0
26.8139431476593,764.0
26.824397087097168,765.0
26.834079027175903,764.0
26.843878984451294,767.0
26.85502290725708,766.0
26.8644700050354,770.0
26.87402105331421,769.0
26.883566856384277,769.0
26.89444899559021,776.0
26.90492296218872,773.0
26.91347098350525,778.0
26.924138069152832,779.0
26.93363308906555,784.0
26.944547176361084,786.0
26.954496145248413,783.0
26.964394092559814,780.0
26.974244117736816,785.0
26.983834981918335,763.0
26.994651079177856,780.0
27.004639148712158,769.0
27.01436185836792,768.0
27.024380922317505,766.0
27.034094095230103,764.0
27.04389524459839,736.0
27.05507206916809,764.0
27.064368963241577,764.0
27.074321031570435,768.0
27.08397388458252,768.0
27.09493899345398,770.0
27.104971170425415,775.0
27.115827083587646,765.0
27.124311208724976,772.0
27.134002923965454,758.0
27.14387583732605,772.0
27.15498399734497,751.0
27.164425134658813,765.0
27.174139976501465,774.0
27.183712005615234,752.0
27.194457292556763,763.0
27.204432010650635,764.0
27.214389085769653,762.0
27.224390029907227,749.0
27.234146118164062,758.0
27.244035959243774,763.0
27.25420594215393,767.0
27.264456033706665,763.0
27.274137258529663,763.0
27.283660173416138,738.0
27.294507026672363,764.0
27.30451798439026,767.0
27.31440496444702,759.0
27.324257135391235,766.0
27.333837032318115,768.0
27.344702005386353,740.0
27.354636192321777,764.0
27.364395141601562,768.0
27.37413215637207,773.0
27.383599042892456,773.0
27.394469022750854,771.0
27.404377222061157,775.0
27.41437816619873,776.0
27.424046277999878,769.0
27.433601140975952,778.0
27.44448208808899,776.0
27.455037117004395,781.0
27.463797092437744,773.0
27.474379062652588,771.0
27.483976125717163,771.0
27.493961095809937,771.0
27.505071878433228,770.0
27.514354944229126,766.0
27.524188995361328,765.0
27.53373408317566,768.0
27.544800996780396,764.0
27.554785013198853,764.0
27.56439208984375,765.0
27.574259996414185,760.0
27.58389902114868,767.0
27.594568014144897,772.0
27.605096101760864,766.0
27.61389398574829,755.0
27.624366283416748,764.0
27.634045124053955,767.0
27.6440269947052,771.0
27.654030084609985,767.0
27.664419174194336,771.0
27.67431616783142,770.0
27.684131145477295,773.0
27.69400715827942,773.0
27.70388698577881,770.0
27.714417934417725,765.0
27.724279165267944,763.0
27.73398518562317,762.0
27.743889093399048,758.0
27.754703044891357,763.0
27.76443910598755,753.0
27.7742440700531,758.0
27.784071922302246,756.0
27.794175148010254,764.0
27.804214000701904,738.0
27.81441903114319,767.0
27.82425308227539,762.0
27.833919048309326,765.0
27.84379005432129,765.0
27.85480809211731,763.0
27.864407062530518,753.0
27.874157190322876,757.0
27.883763074874878,744.0
27.8946750164032,749.0
27.905152082443237,753.0
27.91389298439026,752.0
27.924355268478394,742.0
27.934123039245605,743.0
27.94398808479309,742.0
27.954028129577637,758.0
27.96439814567566,757.0
27.97422695159912,759.0
27.98381495475769,754.0
27.994763135910034,760.0
28.00456404685974,759.0
28.014458894729614,761.0
28.024330139160156,760.0
28.0336971282959,762.0
28.044563055038452,762.0
28.05462408065796,734.0
28.0644109249115,751.0
28.074295043945312,750.0
28.08391499519348,725.0
28.094915866851807,743.0
28.104902982711792,737.0
28.114508152008057,740.0
28.124134063720703,739.0
28.13366723060608,741.0
28.144551992416382,743.0
28.154618978500366,749.0
28.164347887039185,750.0
28.174019813537598,748.0
28.184602975845337,756.0
28.19435715675354,757.0
28.204227209091187,754.0
28.214365005493164,758.0
28.224226236343384,761.0
28.233733892440796,747.0
28.244270086288452,768.0
28.254201889038086,773.0
28.264363050460815,738.0
28.2741961479187,766.0
28.28366208076477,763.0
28.294432163238525,760.0
28.304285049438477,765.0
28.314363956451416,764.0
28.324120044708252,762.0
28.333652019500732,743.0
28.344444036483765,765.0
28.354361295700073,759.0
28.36438298225403,737.0
28.37413787841797,761.0
28.383585214614868,770.0
28.39431405067444,766.0
28.404139041900635,768.0
28.414366006851196,744.0
28.4241201877594,767.0
28.433611154556274,770.0
28.444414138793945,772.0
28.454252004623413,780.0
28.46433115005493,774.0
28.474266052246094,773.0
28.483703136444092,772.0
28.494446277618408,772.0
28.50430703163147,770.0
28.5143461227417,770.0
28.52413010597229,769.0
28.533644199371338,752.0
28.54395294189453,771.0
28.55466914176941,775.0
28.564358949661255,770.0
28.57411789894104,763.0
28.583558082580566,761.0
28.594287872314453,761.0
28.604187965393066,764.0
28.61434292793274,757.0
28.62416410446167,755.0
28.633592128753662,754.0
28.644355058670044,752.0
28.654229164123535,750.0
28.664438009262085,762.0
28.674198150634766,753.0
28.683829069137573,760.0
28.694687128067017,764.0
28.704707145690918,749.0
28.714393854141235,777.0
28.724359035491943,777.0
28.734139919281006,763.0
28.744219064712524,773.0
28.754457235336304,775.0
28.764425039291382,771.0
28.774107933044434,770.0
28.783644914627075,764.0
28.794515132904053,765.0
28.804490089416504,761.0
28.81437397003174,759.0
28.824025869369507,757.0
28.834630012512207,756.0
28.844419956207275,757.0
28.854283094406128,761.0
28.864355087280273,742.0
28.874133110046387,761.0
28.88357710838318,765.0
28.894338130950928,764.0
28.904152154922485,764.0
28.914339065551758,770.0
28.92411708831787,777.0
28.933543920516968,772.0
28.943958044052124,769.0
28.954646110534668,751.0
28.96433424949646,763.0
28.97422504425049,764.0
28.98369789123535,770.0
28.994566917419434,769.0
29.004526138305664,762.0
29.014368057250977,760.0
29.02431011199951,769.0
29.033931016921997,769.0
29.044911861419678,767.0
29.054614067077637,765.0
29.06439995765686,774.0
29.074113130569458,758.0
29.083628177642822,768.0
29.094558000564575,774.0
29.105034112930298,775.0
29.113651990890503,776.0
29.124309062957764,776.0
29.133832931518555,770.0
29.144486904144287,766.0
29.154449939727783,762.0
29.164350032806396,761.0
29.174206972122192,760.0
29.183693170547485,757.0
29.194509029388428,755.0
29.204466104507446,761.0
29.21432399749756,760.0
29.224175930023193,762.0
29.23372507095337,767.0
29.244202136993408,768.0
29.254299879074097,773.0
29.264341115951538,775.0
29.274183988571167,769.0
29.283658027648926,772.0
29.29439115524292,773.0
29.304216146469116,769.0
29.314398050308228,767.0
29.32408094406128,763.0
29.33357810974121,765.0
29.34399700164795,763.0
29.35395097732544,761.0
29.36429190635681,755.0
29.374109983444214,756.0
29.383585214614868,751.0
29.394272089004517,747.0
29.40412187576294,747.0
29.41435194015503,746.0
29.42416501045227,747.0
29.433593273162842,745.0
29.44431495666504,740.0
29.45414090156555,750.0
29.46433424949646,752.0
29.47411799430847,755.0
29.483582973480225,755.0
29.4943790435791,755.0
29.50375509262085,755.0
29.514330863952637,756.0
29.524034023284912,755.0
29.53356409072876,751.0
29.544275045394897,751.0
29.55410099029541,749.0
29.564357042312622,751.0
29.574158191680908,752.0
29.583641290664673,743.0
29.594462156295776,726.0
29.604412078857422,755.0
29.614386081695557,749.0
29.624100923538208,746.0
29.63359308242798,745.0
29.6443452835083,745.0
29.654154062271118,752.0
29.66436505317688,760.0
29.674103021621704,754.0
29.683605194091797,753.0
29.69442892074585,726.0
29.704334259033203,752.0
29.714340925216675,751.0
29.724157094955444,753.0
29.733593225479126,753.0
29.743948221206665,755.0
29.754639863967896,756.0
29.76430916786194,754.0
29.77406120300293,759.0
29.78352999687195,753.0
29.794265270233154,753.0
29.8041889667511,751.0
29.814332008361816,752.0
29.82417321205139,750.0
29.8336660861969,747.0
29.84416389465332,747.0
29.854106903076172,733.0
29.86433696746826,750.0
29.874109983444214,753.0
29.88356900215149,744.0
29.894333124160767,747.0
29.904259204864502,746.0
29.914345026016235,729.0
29.92410922050476,749.0
29.933592081069946,752.0
29.9443941116333,751.0
29.954040050506592,749.0
29.964344263076782,740.0
29.974080085754395,754.0
29.983561038970947,756.0
29.99435806274414,755.0
30.00425910949707,731.0
30.01432991027832,753.0
30.024126052856445,759.0
30.033617973327637,764.0
30.04439091682434,752.0
30.05436110496521,753.0
30.064316034317017,752.0
30.074107885360718,750.0
30.083581924438477,745.0
30.094361066818237,722.0
30.104327917099,750.0
30.114346981048584,752.0
30.124035835266113,748.0
30.13464617729187,749.0
30.1444571018219,752.0
30.154433012008667,748.0
30.164350032806396,747.0
30.174116134643555,749.0
30.18360209465027,719.0
30.19436812400818,739.0
30.204154014587402,726.0
30.214355945587158,739.0
30.22411012649536,709.0
30.233569145202637,732.0
30.244331121444702,729.0
30.25420904159546,735.0
30.26433491706848,732.0
30.27406907081604,736.0
30.283525943756104,735.0
30.29425811767578,741.0
30.303966999053955,747.0
30.31432819366455,748.0
30.324124097824097,727.0
30.333574056625366,753.0
30.344323873519897,752.0
30.354243993759155,730.0
30.364330053329468,753.0
30.37394905090332,764.0
30.38450002670288,755.0
30.394344091415405,749.0
30.404783964157104,743.0
30.41431999206543,747.0
30.42412805557251,750.0
30.433590173721313,748.0
30.444099187850952,751.0
30.453935861587524,743.0
30.46430206298828,741.0
30.47408413887024,746.0
30.48357892036438,747.0
30.494322061538696,747.0
30.504262924194336,750.0
30.51432704925537,749.0
30.52406406402588,752.0
30.533554077148438,746.0
30.543938159942627,725.0
30.554644107818604,751.0
30.564337968826294,746.0
30.57406497001648,745.0
30.583506107330322,745.0
30.594340085983276,720.0
30.604324102401733,746.0
30.614362955093384,746.0
30.62417697906494,743.0
30.633676052093506,743.0
30.644427061080933,739.0
30.654340028762817,742.0
30.664336919784546,740.0
30.674206018447876,748.0
30.683669090270996,742.0
30.694542169570923,745.0
30.70396614074707,759.0
30.714319944381714,763.0
30.72414493560791,763.0
30.733620166778564,764.0
30.744349002838135,766.0
30.75416922569275,769.0
30.764304876327515,770.0
30.774149894714355,750.0
30.783601999282837,755.0
30.794307947158813,727.0
30.804184198379517,744.0
30.814317226409912,742.0
30.824010133743286,735.0
30.834591150283813,728.0
30.844326972961426,729.0
30.854196071624756,724.0
30.864366054534912,722.0
30.87423610687256,729.0
30.883882999420166,738.0
30.894622087478638,733.0
30.904517889022827,732.0
30.914347171783447,734.0
30.9241201877594,729.0
30.933594942092896,734.0
30.943975925445557,729.0
30.953891277313232,729.0
30.96440315246582,728.0
30.974148988723755,723.0
30.98362398147583,728.0
30.994375944137573,726.0
31.004268169403076,725.0
31.014364004135132,730.0
31.024063110351562,732.0
31.033549070358276,737.0
31.04444909095764,721.0
31.054380178451538,742.0
31.064306020736694,751.0
31.074130058288574,754.0
31.08359408378601,754.0
31.094320058822632,765.0
31.103893995285034,757.0
31.11437201499939,744.0
31.12416386604309,755.0
31.133644104003906,744.0
31.144527912139893,740.0
31.15443706512451,730.0
31.164310216903687,729.0
31.174181938171387,726.0
31.18373990058899,731.0
31.19450616836548,730.0
31.204487085342407,727.0
31.214372158050537,732.0
31.224146127700806,732.0
31.233673095703125,738.0
31.24443292617798,744.0
31.254292964935303,743.0
31.264328956604004,744.0
31.274009943008423,747.0
31.284646034240723,739.0
31.294456243515015,742.0
31.30435013771057,743.0
31.31432604789734,744.0
31.324064016342163,744.0
31.334640979766846,742.0
31.344413995742798,739.0
31.354417085647583,747.0
31.36431312561035,721.0
31.374077081680298,749.0
31.383583068847656,754.0
31.39427614212036,753.0
31.40417504310608,758.0
31.414339065551758,755.0
31.424105167388916,754.0
31.433615922927856,764.0
31.44450306892395,750.0
31.454407930374146,755.0
31.464345932006836,757.0
31.474153995513916,755.0
31.483628034591675,756.0
31.49437403678894,740.0
31.503982067108154,752.0
31.514319896697998,755.0
31.524049997329712,758.0
31.53353190422058,761.0
31.544214010238647,751.0
31.554094076156616,750.0
31.56432008743286,747.0
31.574124097824097,754.0
31.583564043045044,753.0
31.5943500995636,728.0
31.604387044906616,753.0
31.614356994628906,760.0
31.62411904335022,760.0
31.63374400138855,758.0
31.644645929336548,747.0
31.65453815460205,753.0
31.66438317298889,754.0
31.6740300655365,753.0
31.683642864227295,749.0
31.694438934326172,750.0
31.704329013824463,737.0
31.71431827545166,739.0
31.72409987449646,741.0
31.733556985855103,744.0
31.743961095809937,742.0
31.75458002090454,746.0
31.764307975769043,752.0
31.774021863937378,753.0
31.783524990081787,753.0
31.794252157211304,756.0
31.80413818359375,759.0
31.81433606147766,754.0
31.824187994003296,755.0
31.8336980342865,754.0
31.84448003768921,754.0
31.85441017150879,752.0
31.864305019378662,750.0
31.874119997024536,752.0
31.88360095024109,753.0
31.89429211616516,748.0
31.904036283493042,749.0
31.91428518295288,751.0
31.9239981174469,752.0
31.93350315093994,753.0
31.94423508644104,752.0
31.954084157943726,761.0
31.96430802345276,761.0
31.974062204360962,757.0
31.983500003814697,753.0
31.99415898323059,756.0
32.00395083427429,760.0
32.01563906669617,756.0
32.024019956588745,729.0
32.034618854522705,757.0
32.044387102127075,758.0
32.05421590805054,751.0
32.064306020736694,751.0
32.07399821281433,749.0
32.08458495140076,749.0
32.09439706802368,726.0
32.10436415672302,754.0
32.11429715156555,752.0
32.124090909957886,747.0
32.13352918624878,748.0
32.14394807815552,744.0
32.15463209152222,741.0
32.16429901123047,741.0
32.174073934555054,745.0
32.18358516693115,744.0
32.194324016571045,756.0
32.20422887802124,748.0
32.21430706977844,750.0
32.22406005859375,755.0
32.23353099822998,761.0
32.24410915374756,760.0
32.25398397445679,757.0
32.265531063079834,756.0
32.27391695976257,761.0
32.28447604179382,755.0
32.29420185089111,755.0
32.303975105285645,748.0
32.31431984901428,750.0
32.3239381313324,750.0
32.33447504043579,722.0
32.344205141067505,730.0
32.354074001312256,747.0
32.364304065704346,754.0
32.374080181121826,746.0
32.383496046066284,750.0
32.39422106742859,766.0
32.404048919677734,741.0
32.4142861366272,752.0
32.42421197891235,747.0
32.43374300003052,747.0
32.44448399543762,740.0
32.45427107810974,742.0
32.46430802345276,752.0
32.47400403022766,750.0
32.48458290100098,755.0
32.49435806274414,743.0
32.50423717498779,749.0
32.514286279678345,753.0
32.5239839553833,751.0
32.53453016281128,753.0
32.54395508766174,748.0
32.55460000038147,753.0
32.5643150806427,749.0
32.57393503189087,748.0
32.584450244903564,750.0
32.59423589706421,744.0
32.604151248931885,726.0
32.61430215835571,745.0
32.62408924102783,747.0
32.63356399536133,750.0
32.644206285476685,741.0
32.65404295921326,745.0
32.664294958114624,741.0
32.6740779876709,745.0
32.68356418609619,749.0
32.6943199634552,756.0
32.703964948654175,753.0
32.71430206298828,756.0
32.72408413887024,755.0
32.73354721069336,754.0
32.74423098564148,751.0
32.754075050354004,751.0
32.764272928237915,757.0
32.77403020858765,729.0
32.78349304199219,757.0
32.79419803619385,761.0
32.804073095321655,760.0
32.814276933670044,752.0
32.82403016090393,754.0
32.83352994918823,755.0
32.84425497055054,755.0
32.85416102409363,754.0
32.864278078079224,749.0
32.873823165893555,752.0
32.884451150894165,761.0
32.894294023513794,760.0
32.904179096221924,737.0
32.9142861366272,757.0
32.92399001121521,758.0
32.93457221984863,758.0
32.9439480304718,763.0
32.954610109329224,755.0
32.96428298950195,732.0
32.97390913963318,752.0
32.98451113700867,755.0
32.994296073913574,731.0
33.00417995452881,756.0
33.01428413391113,752.0
33.024065017700195,756.0
33.03350830078125,756.0
33.043899059295654,751.0
33.05467915534973,752.0
33.06430387496948,750.0
33.07392382621765,745.0
33.0843391418457,747.0
33.09413194656372,742.0
33.10401105880737,726.0
33.11431407928467,744.0
33.12408518791199,748.0
33.133546113967896,764.0
33.144320011138916,749.0
33.15408492088318,734.0
33.16431713104248,749.0
33.17405295372009,753.0
33.183510065078735,725.0
33.19420003890991,748.0
33.204046964645386,747.0
33.214277029037476,746.0
33.22409105300903,745.0
33.233561992645264,725.0
33.24427914619446,748.0
33.25408387184143,749.0
33.26429009437561,745.0
33.27404499053955,746.0
33.28459906578064,751.0
33.29439997673035,746.0
33.30426812171936,721.0
33.314269065856934,747.0
33.32404899597168,750.0
33.33354616165161,745.0
33.34391713142395,744.0
33.35470008850098,742.0
33.36432695388794,739.0
33.37403607368469,735.0
33.38353419303894,733.0
33.39429521560669,743.0
33.40430212020874,722.0
33.41429400444031,736.0
33.42397499084473,737.0
33.43458104133606,734.0
33.44434905052185,736.0
33.454265117645264,739.0
33.464303970336914,747.0
33.474093198776245,747.0
33.48357009887695,729.0
33.494292974472046,745.0
33.503958225250244,746.0
33.51559901237488,747.0
33.52412009239197,747.0
33.53358602523804,750.0
33.544305086135864,743.0
33.55437707901001,749.0
33.56428909301758,749.0
33.574082136154175,745.0
33.58353304862976,750.0
33.59434914588928,743.0
33.60424089431763,747.0
33.614283084869385,741.0
33.62392711639404,749.0
33.634522914886475,740.0
33.64429593086243,745.0
33.65416622161865,745.0
33.66428184509277,744.0
33.67405605316162,716.0
33.6835401058197,740.0
33.69428515434265,739.0
33.704140186309814,739.0
33.714268922805786,740.0
33.72407817840576,734.0
33.73351001739502,739.0
33.74392604827881,738.0
33.75456690788269,743.0
33.764265060424805,740.0
33.77405118942261,744.0
33.78350901603699,744.0
33.79426312446594,749.0
33.80410408973694,747.0
33.81429409980774,742.0
33.82400608062744,745.0
33.83459520339966,737.0
33.844417095184326,730.0
33.85479998588562,727.0
33.86427617073059,734.0
33.87417507171631,736.0
33.88365602493286,742.0
33.894432067871094,736.0
33.903937101364136,741.0
33.91429114341736,742.0
33.92409706115723,718.0
33.933598041534424,728.0
33.94438314437866,739.0
33.95431303977966,742.0
33.96427607536316,744.0
33.974087953567505,748.0
33.98351693153381,747.0
33.994243144989014,738.0
34.00415015220642,741.0
34.01428198814392,735.0
34.024105072021484,727.0
34.03359007835388,721.0
34.044305086135864,728.0
34.054248094558716,734.0
34.064269065856934,730.0
34.073981046676636,734.0
34.08460187911987,738.0
34.09446096420288,716.0
34.10438513755798,734.0
34.11428689956665,736.0
34.1241180896759,737.0
34.13355493545532,730.0
34.14391613006592,732.0
34.15458703041077,728.0
34.164283990859985,732.0
34.1741361618042,732.0
34.18359994888306,740.0
34.194380044937134,729.0
34.20424294471741,733.0
34.214287996292114,740.0
34.224189043045044,741.0
34.2336699962616,742.0
34.244479179382324,744.0
34.254433155059814,742.0
34.26425504684448,732.0
34.2740318775177,738.0
34.28458309173584,737.0
34.29441213607788,734.0
34.303977966308594,718.0
34.31557297706604,745.0
34.324156045913696,750.0
34.333625078201294,750.0
34.34434509277344,754.0
34.35415196418762,753.0
34.364285945892334,750.0
34.37406802177429,743.0
34.38351321220398,752.0
34.39439105987549,751.0
34.404237031936646,749.0
34.414265155792236,723.0
34.4240882396698,719.0
34.4335560798645,724.0
34.44437003135681,731.0
34.4542670249939,733.0
34.464285135269165,728.0
34.474016189575195,725.0
34.48461604118347,727.0
34.49446892738342,734.0
34.504515171051025,734.0
34.51426911354065,743.0
34.52398610115051,745.0
34.53456425666809,748.0
34.54392099380493,750.0
34.5546190738678,755.0
34.564302921295166,752.0
34.57404184341431,748.0
34.58346509933472,743.0
34.594244956970215,741.0
34.604159116744995,743.0
34.61426520347595,742.0
34.62404799461365,753.0
34.63349413871765,748.0
34.64415693283081,746.0
34.653977155685425,748.0
34.665635108947754,747.0
34.67409706115723,747.0
34.68369913101196,739.0
34.69464826583862,716.0
34.70461702346802,740.0
34.7143120765686,738.0
34.72375702857971,737.0
34.734408140182495,730.0
34.74428606033325,736.0
34.754409074783325,733.0
34.764344215393066,727.0
34.774017095565796,737.0
34.78359818458557,741.0
34.79457426071167,743.0
34.8046600818634,738.0
34.814425230026245,743.0
34.8241400718689,741.0
34.83379101753235,743.0
34.844752073287964,745.0
34.854719161987305,721.0
34.86429500579834,745.0
34.874168157577515,746.0
34.8837251663208,746.0
34.894848108291626,725.0
34.905333042144775,745.0
34.91381096839905,742.0
34.92411804199219,745.0
34.933725118637085,752.0
34.94455313682556,749.0
34.9544358253479,750.0
34.964303970336914,752.0
34.97412991523743,752.0
34.98355007171631,758.0
34.99429416656494,756.0
35.0041561126709,751.0
35.01427602767944,752.0
35.02405309677124,748.0
35.03346800804138,752.0
35.04417324066162,749.0
35.054012060165405,748.0
35.06428503990173,750.0
35.07398724555969,757.0
35.08354997634888,749.0
35.09433102607727,755.0
35.10400104522705,755.0
35.11381411552429,754.0
35.12440204620361,750.0
35.13408899307251,750.0
35.144057273864746,750.0
35.1539421081543,748.0
35.16489601135254,729.0
35.17422103881836,750.0
35.183666944503784,751.0
35.19468903541565,748.0
35.20515704154968,748.0
35.21378207206726,750.0
35.2243709564209,758.0
35.23408484458923,753.0
35.2440972328186,753.0
35.25417613983154,746.0
35.26394820213318,752.0
35.27431297302246,736.0
35.28408718109131,751.0
35.294158935546875,743.0
35.30411195755005,747.0
35.314286947250366,754.0
35.32408618927002,759.0
35.3337140083313,752.0
35.34469723701477,749.0
35.354637145996094,728.0
35.364280223846436,745.0
35.374070167541504,745.0
35.38365602493286,748.0
35.39437818527222,748.0
35.40439987182617,730.0
35.41429305076599,746.0
35.42420196533203,748.0
35.43376803398132,742.0
35.44456505775452,743.0
35.454456090927124,745.0
35.46432590484619,745.0
35.47396421432495,745.0
35.48461604118347,737.0
35.49455404281616,743.0
35.50397300720215,739.0
35.5142560005188,736.0
35.52403402328491,742.0
35.53463101387024,741.0
35.54449105262756,715.0
35.55450701713562,731.0
35.56428599357605,731.0
35.574151039123535,729.0
35.58370900154114,733.0
35.59458112716675,738.0
35.60462713241577,743.0
35.61429786682129,743.0
35.624099254608154,742.0
35.6336510181427,741.0
35.644543170928955,747.0
35.65496301651001,747.0
35.66493105888367,742.0
35.67437291145325,740.0
35.684048891067505,732.0
35.693910121917725,735.0
35.703985929489136,714.0
35.714285135269165,734.0
35.724199056625366,736.0
35.733771085739136,735.0
35.74470615386963,736.0
35.754618883132935,736.0
35.76428699493408,735.0
35.774094104766846,738.0
35.7836492061615,736.0
35.794658184051514,736.0
35.80466318130493,735.0
35.81429100036621,727.0
35.82423210144043,738.0
35.83398723602295,735.0
35.843794107437134,741.0
35.854873180389404,707.0
35.86562705039978,730.0
35.87410593032837,733.0
35.883721113204956,727.0
35.89473795890808,715.0
35.90485405921936,733.0
35.91429901123047,744.0
35.92420506477356,748.0
35.93381309509277,754.0
35.94485402107239,757.0
35.955398082733154,759.0
35.96431493759155,755.0
35.974199056625366,755.0
35.98384428024292,755.0
35.99387288093567,744.0
36.00497603416443,744.0
36.01428699493408,740.0
36.024129152297974,741.0
36.033838987350464,738.0
36.04487204551697,738.0
36.0553879737854,711.0
36.06429386138916,743.0
36.07420110702515,740.0
36.08395600318909,739.0
36.0938880443573,743.0
36.10397005081177,740.0
36.114283084869385,739.0
36.1242311000824,738.0
36.13386511802673,728.0
36.14484906196594,738.0
36.15462303161621,752.0
36.164291858673096,725.0
36.17408108711243,739.0
36.18362617492676,739.0
36.194518089294434,740.0
36.20447897911072,747.0
36.2143292427063,748.0
36.224096059799194,755.0
36.23366904258728,745.0
36.24472212791443,749.0
36.2547070980072,741.0
36.26434016227722,742.0
36.27415895462036,739.0
36.283764123916626,739.0
36.29470491409302,747.0
36.305201053619385,735.0
36.313831090927124,735.0
36.32419514656067,733.0
36.33387017250061,729.0
36.343833923339844,711.0
36.35488796234131,736.0
36.365663051605225,736.0
36.374255895614624,741.0
36.3839750289917,741.0
36.39381504058838,744.0
36.404850006103516,748.0
36.414299964904785,750.0
36.423919916152954,744.0
36.434650897979736,739.0
36.44456601142883,745.0
36.454489946365356,743.0
36.46425914764404,742.0
36.4742431640625,742.0
36.48388695716858,744.0
36.49378705024719,748.0
36.50501108169556,746.0
36.514270067214966,743.0
36.524085998535156,746.0
36.53362011909485,753.0
36.54460024833679,741.0
36.55453705787659,741.0
36.56426191329956,740.0
36.574059009552,744.0
36.58361005783081,743.0
36.59449601173401,742.0
36.60443091392517,737.0
36.61428689956665,738.0
36.62400221824646,722.0
36.633599042892456,744.0
36.64462113380432,745.0
36.65505003929138,743.0
36.66364502906799,745.0
36.67416715621948,746.0
36.68373203277588,746.0
36.69464302062988,741.0
36.70466685295105,740.0
36.71427798271179,730.0
36.72413396835327,748.0
36.73369002342224,747.0
36.74455714225769,747.0
36.75475597381592,750.0
36.764293909072876,751.0
36.77392911911011,753.0
36.784608125686646,750.0
36.79449415206909,752.0
36.80454707145691,733.0
36.814311027526855,754.0
36.824087142944336,758.0
36.833658933639526,760.0
36.844542026519775,760.0
36.855061054229736,729.0
36.863609075546265,750.0
36.874244928359985,747.0
36.88401484489441,746.0
36.89386606216431,743.0
36.90498423576355,716.0
36.91425895690918,742.0
36.92419624328613,732.0
36.9338481426239,742.0
36.94373297691345,742.0
36.95450305938721,746.0
36.96428298950195,740.0
36.974082231521606,743.0
36.98379302024841,745.0
36.99377417564392,750.0
37.00490093231201,750.0
37.015527963638306,746.0
37.02389097213745,748.0
37.034470081329346,744.0
37.04443597793579,745.0
37.05441498756409,721.0
37.064263105392456,713.0
37.07408595085144,741.0
37.08368492126465,744.0
37.09421920776367,740.0
37.10409712791443,743.0
37.11425495147705,745.0
37.12407994270325,739.0
37.1335072517395,742.0
37.144267082214355,743.0
37.15415000915527,743.0
37.164252042770386,747.0
37.17409420013428,747.0
37.183663845062256,753.0
37.19452905654907,748.0
37.204602003097534,745.0
37.21429991722107,741.0
37.223856925964355,744.0
37.23451018333435,747.0
37.2442262172699,742.0
37.254093170166016,743.0
37.26426720619202,742.0
37.27406406402588,716.0
37.28365182876587,739.0
37.29442000389099,741.0
37.30445694923401,742.0
37.31423592567444,744.0
37.32411503791809,748.0
37.33364796638489,748.0
37.3446090221405,753.0
37.35463905334473,751.0
37.364235162734985,749.0
37.3742311000824,748.0
37.38384008407593,746.0
37.394771099090576,724.0
37.40442514419556,744.0
37.41426420211792,743.0
37.424092054367065,744.0
37.43361306190491,742.0
37.44450116157532,726.0
37.454527139663696,740.0
37.46431493759155,740.0
37.47414827346802,743.0
37.48375988006592,742.0
37.49469804763794,740.0
37.505151987075806,747.0
37.51379323005676,739.0
37.52432703971863,710.0
37.534040212631226,742.0
37.54391407966614,738.0
37.55457806587219,738.0
37.56428909301758,740.0
37.57412791252136,742.0
37.58372402191162,746.0
37.59465003013611,728.0
37.60461187362671,743.0
37.61424207687378,738.0
37.623976945877075,726.0
37.633508920669556,734.0
37.64435005187988,747.0
37.654340982437134,738.0
37.66427206993103,713.0
37.67411422729492,732.0
37.68369102478027,740.0
37.69461989402771,751.0
37.70510125160217,739.0
37.71377420425415,744.0
37.724217891693115,717.0
37.733787059783936,737.0
37.744755029678345,711.0
37.754722118377686,711.0
37.76426029205322,725.0
37.77405595779419,727.0
37.78360104560852,730.0
37.79448199272156,724.0
37.804492235183716,722.0
37.81430721282959,723.0
37.824121952056885,728.0
37.83371090888977,722.0
37.84459185600281,725.0
37.85462212562561,726.0
37.86437797546387,729.0
37.873892068862915,733.0
37.884565114974976,710.0
37.894553899765015,736.0
37.905104875564575,734.0
37.91378426551819,733.0
37.92425203323364,743.0
37.93391489982605,734.0
37.943926095962524,733.0
37.95510506629944,737.0
37.964248180389404,742.0
37.97412991523743,732.0
37.983705282211304,733.0
37.99464201927185,735.0
38.004759073257446,736.0
38.014260053634644,736.0
38.02414393424988,737.0
38.033637046813965,745.0
38.04393720626831,715.0
38.05495810508728,742.0
38.06421208381653,741.0
38.07406497001648,745.0
38.08353018760681,740.0
38.094335079193115,747.0
38.10421419143677,744.0
38.1142680644989,726.0
38.124141216278076,730.0
38.13373613357544,746.0
38.144710063934326,749.0
38.15462517738342,750.0
38.16425108909607,747.0
38.1741042137146,744.0
38.18372106552124,750.0
38.194520235061646,746.0
38.20440602302551,723.0
38.21425008773804,719.0
38.22416424751282,745.0
38.23367714881897,721.0
38.24431610107422,743.0
38.25434923171997,741.0
38.26426291465759,741.0
38.27413010597229,744.0
38.28378510475159,743.0
38.29478406906128,725.0
38.30524206161499,747.0
38.31382608413696,753.0
38.324383020401,761.0
38.33404302597046,755.0
38.34396409988403,761.0
38.354063987731934,734.0
38.364261865615845,758.0
38.37406802177429,761.0
38.38369703292847,758.0
38.394611120224,758.0
38.4050190448761,752.0
38.413761138916016,759.0
38.42414402961731,758.0
38.43376708030701,757.0
38.444396018981934,759.0
38.45498514175415,755.0
38.463606119155884,757.0
38.474180936813354,731.0
38.483800172805786,752.0
38.4945969581604,751.0
38.50515604019165,725.0
38.513750076293945,756.0
38.52420902252197,753.0
38.533868074417114,749.0
38.54478406906128,750.0
38.55463194847107,748.0
38.56424617767334,754.0
38.574207067489624,725.0
38.58391618728638,747.0
38.593921184539795,750.0
38.60499310493469,747.0
38.614238023757935,719.0
38.62404417991638,747.0
38.63359594345093,748.0
38.64450526237488,721.0
38.65501809120178,750.0
38.66377401351929,755.0
38.67441701889038,763.0
38.68426823616028,756.0
38.694042921066284,757.0
38.703943967819214,762.0
38.71374297142029,763.0
38.72415590286255,760.0
38.73382210731506,756.0
38.74435901641846,758.0
38.754430055618286,763.0
38.76431226730347,763.0
38.77406406402588,766.0
38.78359413146973,762.0
38.79454302787781,762.0
38.80450797080994,759.0
38.81431293487549,738.0
38.82391715049744,753.0
38.83355093002319,750.0
38.84428596496582,750.0
38.854241132736206,751.0
38.86427402496338,746.0
38.87404108047485,754.0
38.883562088012695,753.0
38.8944411277771,760.0
38.90433216094971,751.0
38.9141960144043,753.0
38.92412495613098,753.0
38.93364906311035,758.0
38.94447207450867,758.0
38.954383850097656,735.0
38.96423816680908,759.0
38.97420120239258,760.0
38.983880043029785,759.0
38.993813037872314,747.0
39.00501990318298,763.0
39.014363050460815,763.0
39.024112939834595,766.0
39.03368401527405,768.0
39.044737100601196,759.0
39.05529999732971,764.0
39.06415104866028,762.0
39.07404398918152,761.0
39.08364820480347,737.0
39.09454917907715,764.0
39.10398507118225,762.0
39.114238023757935,764.0
39.12375998497009,766.0
39.1344530582428,759.0
39.144455909729004,756.0
39.15440106391907,752.0
39.16429400444031,756.0
39.17414617538452,750.0
39.183712005615234,756.0
39.19450497627258,752.0
39.20440602302551,748.0
39.21424412727356,748.0
39.224082946777344,751.0
39.233673095703125,756.0
39.24431490898132,754.0
39.25416827201843,758.0
39.26381707191467,729.0
39.27439498901367,727.0
39.2840461730957,760.0
39.293915033340454,763.0
39.304397106170654,757.0
39.314221143722534,728.0
39.324225187301636,751.0
39.33382511138916,757.0
39.34470510482788,753.0
39.35464000701904,751.0
39.36426305770874,753.0
39.373974084854126,757.0
39.38349008560181,755.0
39.394413232803345,759.0
39.404439210891724,765.0
39.41430711746216,764.0
39.42400598526001,759.0
39.43354916572571,753.0
39.444432973861694,732.0
39.45492696762085,740.0
39.46367120742798,746.0
39.47416806221008,742.0
39.48373198509216,748.0
39.494621992111206,728.0
39.5050630569458,742.0
39.51375389099121,745.0
39.524131059646606,751.0
39.53359794616699,752.0
39.54435610771179,740.0
39.554749965667725,747.0
39.564234018325806,750.0
39.573883056640625,751.0
39.584522008895874,748.0
39.59443807601929,754.0
39.604963064193726,767.0
39.61374807357788,760.0
39.624152183532715,763.0
39.63373017311096,767.0
39.64471888542175,747.0
39.65517711639404,755.0
39.663772106170654,752.0
39.67426109313965,752.0
39.68411612510681,752.0
39.694040060043335,747.0
39.70458197593689,750.0
39.71428203582764,749.0
39.724185943603516,746.0
39.733850955963135,749.0
39.74374318122864,750.0
39.7546010017395,756.0
39.76423406600952,755.0
39.774169921875,746.0
39.7837860584259,749.0
39.79465103149414,746.0
39.80507016181946,725.0
39.81373119354248,753.0
39.824119091033936,757.0
39.83367300033569,743.0
39.84472608566284,757.0
39.85522508621216,757.0
39.86379289627075,758.0
39.87434196472168,767.0
39.88394808769226,756.0
39.893752098083496,728.0
39.90469217300415,738.0
39.91425895690918,750.0
39.92403316497803,752.0
39.93355703353882,756.0
39.94440293312073,754.0
39.95487999916077,758.0
39.96372199058533,746.0
39.97442698478699,747.0
39.983925104141235,742.0
39.99373507499695,748.0
40.00476908683777,754.0
40.015503883361816,747.0
40.02391195297241,747.0
40.03455400466919,746.0
40.04454803466797,747.0
40.05458211898804,753.0
40.064274072647095,751.0
40.07406497001648,750.0
40.083651065826416,755.0
40.09470009803772,756.0
40.10521912574768,738.0
40.11378598213196,747.0
40.124290227890015,752.0
40.13393425941467,739.0
40.14387011528015,742.0
40.15380907058716,744.0
40.16561007499695,745.0
40.17400097846985,742.0
40.1834602355957,742.0
40.19433808326721,744.0
40.204275131225586,748.0
40.21428990364075,728.0
40.22414803504944,745.0
40.23398303985596,747.0
40.24380922317505,745.0
40.25502109527588,741.0
40.26426100730896,733.0
40.27420902252197,748.0
40.28386902809143,748.0
40.29379200935364,750.0
40.30493211746216,748.0
40.31427311897278,747.0
40.324007987976074,746.0
40.33359217643738,749.0
40.34460186958313,747.0
40.35505700111389,745.0
40.36371684074402,751.0
40.37426424026489,744.0
40.38383221626282,757.0
40.39460515975952,755.0
40.404592990875244,752.0
40.41422390937805,752.0
40.42400598526001,745.0
40.43357491493225,750.0
40.44458198547363,745.0
40.45468497276306,743.0
40.4641900062561,749.0
40.4742751121521,740.0
40.48404407501221,748.0
40.49383902549744,742.0
40.50502896308899,731.0
40.51419496536255,736.0
40.52418303489685,726.0
40.53373908996582,736.0
40.54466891288757,734.0
40.55468702316284,715.0
40.56421208381653,735.0
40.574069023132324,741.0
40.58362603187561,745.0
40.59449100494385,748.0
40.604541063308716,748.0
40.61424899101257,755.0
40.62416911125183,749.0
40.633753061294556,743.0
40.64468502998352,754.0
40.65522527694702,756.0
40.663784980773926,755.0
40.674351930618286,748.0
40.683956146240234,743.0
40.69372606277466,750.0
40.704867124557495,749.0
40.71493411064148,750.0
40.72395706176758,743.0
40.733561277389526,740.0
40.7445330619812,739.0
40.75455713272095,737.0
40.76419520378113,736.0
40.77399706840515,734.0
40.78346800804138,732.0
40.794260025024414,732.0
40.80420112609863,740.0
40.81423306465149,738.0
40.823983907699585,729.0
40.83348989486694,727.0
40.84435319900513,735.0
40.85431623458862,730.0
40.864176988601685,717.0
40.873934268951416,727.0
40.8846001625061,738.0
40.89451193809509,742.0
40.90458297729492,733.0
40.9142050743103,732.0
40.924057960510254,742.0
40.93371510505676,740.0
40.94472002983093,740.0
40.95464110374451,749.0
40.964261054992676,752.0
40.9740092754364,753.0
40.983511209487915,755.0
40.99433612823486,755.0
41.004258155822754,749.0
41.01419711112976,742.0
41.02408194541931,746.0
41.0335750579834,738.0
41.044313192367554,742.0
41.05417823791504,740.0
41.06418585777283,742.0
41.07393789291382,741.0
41.08451008796692,742.0
41.09427809715271,716.0
41.103875160217285,715.0
41.11561703681946,738.0
41.1239960193634,743.0
41.13345694541931,742.0
41.14430284500122,743.0
41.15422224998474,741.0
41.16423726081848,742.0
41.17399001121521,741.0
41.183648109436035,740.0
41.1946120262146,742.0
41.20505499839783,747.0
41.21388006210327,748.0
41.22415804862976,745.0
41.23366618156433,750.0
41.24464702606201,746.0
41.25524401664734,742.0
41.263734102249146,716.0
41.27428412437439,743.0
41.2840211391449,746.0
41.294005155563354,735.0
41.30392098426819,731.0
41.31420302391052,744.0
41.32400608062744,748.0
41.333744049072266,753.0
41.34478497505188,751.0
41.35461211204529,756.0
41.36419415473938,749.0
41.37429714202881,757.0
41.38404703140259,754.0
41.393906116485596,757.0
41.40385413169861,739.0
41.4141891002655,726.0
41.42390298843384,747.0
41.4345428943634,743.0
41.444496870040894,743.0
41.454622983932495,742.0
41.46422004699707,754.0
41.473966121673584,739.0
41.48359704017639,742.0
41.49453902244568,745.0
41.5046112537384,740.0
41.51423215866089,738.0
41.524150133132935,713.0
41.53386187553406,731.0
41.543813943862915,734.0
41.55489802360535,707.0
41.564197063446045,730.0
41.57404708862305,739.0
41.583600997924805,739.0
41.594571113586426,739.0
41.60454511642456,742.0
41.61421799659729,740.0
41.62400221824646,750.0
41.6336829662323,739.0
41.64466404914856,739.0
41.65514516830444,743.0
41.66372895240784,739.0
41.67418098449707,736.0
41.68384599685669,740.0
41.693785190582275,736.0
41.705034017562866,732.0
41.714179277420044,734.0
41.72407507896423,733.0
41.733790159225464,715.0
41.74483013153076,709.0
41.75437021255493,734.0
41.7642240524292,713.0
41.77406597137451,741.0
41.783730030059814,722.0
41.79471206665039,731.0
41.80451202392578,734.0
41.81420922279358,726.0
41.82410192489624,738.0
41.833807945251465,737.0
41.84377312660217,733.0
41.85496807098389,736.0
41.86418414115906,711.0
41.874197006225586,736.0
41.88383388519287,736.0
41.89483094215393,739.0
41.90530705451965,744.0
41.914133071899414,743.0
41.92397499084473,738.0
41.933650970458984,740.0
41.944679975509644,734.0
41.95521116256714,737.0
41.96371412277222,738.0
41.974169969558716,735.0
41.98392415046692,716.0
41.99383807182312,740.0
42.0038321018219,743.0
42.01558518409729,745.0
42.024062156677246,735.0
42.04411816596985,734.0
42.05537796020508,737.0
42.06573009490967,734.0
42.074305057525635,734.0
42.0851731300354,732.0
42.095088958740234,733.0
42.105398178100586,733.0
42.11558794975281,731.0
42.12518310546875,734.0
42.13470125198364,712.0
42.14581298828125,749.0
42.15460991859436,742.0
42.165558099746704,746.0
42.17520809173584,748.0
42.18502902984619,738.0
42.194987058639526,738.0
42.20499587059021,737.0
42.2157461643219,715.0
42.22429704666138,733.0
42.23526215553284,732.0
42.2451491355896,741.0
42.25537419319153,732.0
42.2657151222229,725.0
42.274227142333984,730.0
42.28956913948059,729.0
42.296452045440674,728.0
42.30478286743164,732.0
42.315359115600586,733.0
42.324801206588745,731.0
42.335054874420166,727.0
42.345004081726074,727.0
42.35537791252136,729.0
42.36568093299866,724.0
42.37425494194031,719.0
42.38488984107971,727.0
42.39456605911255,703.0
42.405450105667114,727.0
42.41607093811035,724.0
42.424514055252075,727.0
42.435230016708374,728.0
42.44512224197388,727.0
42.45537996292114,730.0
42.46532702445984,726.0
42.474804162979126,729.0
42.484448194503784,724.0
42.49535799026489,723.0
42.505393981933594,714.0
42.515429973602295,711.0
42.52492117881775,718.0
42.534489154815674,716.0
42.54543328285217,716.0
42.55538201332092,717.0
42.565410137176514,720.0
42.574838161468506,717.0
42.584473848342896,726.0
42.59541201591492,722.0
42.60538196563721,730.0
42.615480184555054,720.0
42.62501096725464,721.0
42.63479208946228,720.0
42.64525127410889,718.0
42.65539216995239,711.0
42.665473222732544,716.0
42.674968242645264,716.0
42.684487104415894,696.0
42.69555997848511,719.0
42.7058482170105,721.0
42.714553117752075,719.0
42.7249858379364,726.0
42.734468936920166,734.0
42.74552607536316,728.0
42.75587511062622,732.0
42.76456618309021,733.0
42.77504014968872,716.0
42.784494161605835,734.0
42.795459270477295,724.0
42.805838108062744,728.0
42.81457710266113,715.0
42.8249990940094,715.0
42.8344841003418,712.0
42.84540915489197,707.0
42.85537505149841,708.0
42.865468978881836,711.0
42.87491321563721,712.0
42.88444900512695,708.0
42.89529991149902,717.0
42.9053750038147,719.0
42.91536808013916,725.0
42.924800157547,720.0
42.934427976608276,721.0
42.944504261016846,722.0
42.954740047454834,713.0
42.96434998512268,719.0
42.974231243133545,719.0
42.98528814315796,720.0
42.99439811706543,731.0
43.004915952682495,725.0
43.01460099220276,725.0
43.02515006065369,725.0
43.034586906433105,718.0
43.045247077941895,722.0
43.0549042224884,724.0
43.064653158187866,726.0
43.07524108886719,723.0
43.08505821228027,726.0
43.09510803222656,723.0
43.105392932891846,718.0
43.115636110305786,718.0
43.12423610687256,714.0
43.13507008552551,689.0
43.144474029541016,713.0
43.15585899353027,715.0
43.16450905799866,712.0
43.17496705055237,718.0
43.18449687957764,721.0
43.19543194770813,725.0
43.20535397529602,721.0
43.21533226966858,727.0
43.224761962890625,717.0
43.23510813713074,716.0
43.24493598937988,722.0
43.255316972732544,715.0
43.26536512374878,726.0
43.27479887008667,713.0
43.2852041721344,725.0
43.295166969299316,726.0
43.30541920661926,727.0
43.31552600860596,725.0
43.32504987716675,725.0
43.33449196815491,730.0
43.345235109329224,728.0
43.3553581237793,723.0
43.3654510974884,726.0
43.37591314315796,723.0
43.384516954422,719.0
43.395437240600586,728.0
43.40585708618164,721.0
43.41469120979309,722.0
43.42423725128174,731.0
43.43486404418945,723.0
43.444751024246216,724.0
43.4558470249176,726.0
43.4644820690155,720.0
43.47504115104675,725.0
43.48447394371033,722.0
43.49550223350525,717.0
43.5058069229126,716.0
43.514204025268555,720.0
43.52478003501892,717.0
43.535496950149536,716.0
43.545374155044556,722.0
43.55542612075806,726.0
43.565372943878174,722.0
43.57485294342041,725.0
43.584441900253296,728.0
43.59553003311157,724.0
43.60584092140198,722.0
43.61457586288452,727.0
43.6250262260437,723.0
43.63447093963623,727.0
43.64539813995361,711.0
43.65536308288574,731.0
43.665547132492065,731.0
43.67509412765503,734.0
43.684794902801514,733.0
43.69468593597412,729.0
43.705390214920044,730.0
43.71572303771973,721.0
43.72430109977722,701.0
43.73493790626526,726.0
43.74484610557556,699.0
43.755335092544556,730.0
43.76544213294983,720.0
43.77494406700134,719.0
43.78446698188782,722.0
43.79546809196472,716.0
43.80583620071411,719.0
43.814579010009766,725.0
43.82509398460388,713.0
43.834470987319946,717.0
43.84519720077515,718.0
43.85538697242737,718.0
43.8655219078064,720.0
43.874993085861206,712.0
43.88447022438049,716.0
43.895519971847534,715.0
43.90583896636963,695.0
43.91461110115051,697.0
43.92551398277283,715.0
43.93530821800232,714.0
43.94528794288635,704.0
43.95535206794739,719.0
43.96552920341492,719.0
43.975111961364746,727.0
43.98484206199646,720.0
43.994572162628174,728.0
44.00534200668335,720.0
44.01583695411682,720.0
44.02439212799072,713.0
44.035043239593506,720.0
44.044872999191284,724.0
44.05468201637268,714.0
44.065701961517334,721.0
44.07526397705078,718.0
44.08498525619507,725.0
44.09494996070862,721.0
44.10530114173889,715.0
44.115416049957275,719.0
44.12491512298584,711.0
44.13449501991272,695.0
44.14579200744629,720.0
44.15445303916931,701.0
44.16574215888977,725.0
44.175240993499756,720.0
44.18498992919922,719.0
44.194430112838745,708.0
44.20533609390259,718.0
44.215879917144775,715.0
44.22427821159363,688.0
44.23501396179199,711.0
44.24481201171875,714.0
44.25450015068054,714.0
44.26559400558472,716.0
44.27515006065369,689.0
44.28489804267883,712.0
44.29474210739136,697.0
44.30583715438843,725.0
44.31451916694641,694.0
44.32498097419739,718.0
44.334502935409546,694.0
44.345027923583984,724.0
44.35482311248779,719.0
44.36464595794678,719.0
44.37514400482178,730.0
44.384472131729126,723.0
44.3954131603241,717.0
44.405450105667114,721.0
44.41545605659485,722.0
44.42499113082886,718.0
44.43449306488037,722.0
44.44548320770264,712.0
44.45582604408264,710.0
44.46414804458618,704.0
44.47452402114868,704.0
44.48518991470337,712.0
44.49509000778198,709.0
44.50537300109863,696.0
44.51537322998047,712.0
44.52480220794678,689.0
44.534377098083496,714.0
44.54527401924133,711.0
44.55534601211548,711.0
44.565277099609375,709.0
44.5747332572937,717.0
44.58541488647461,709.0
44.595338106155396,709.0
44.60532522201538,711.0
44.61546301841736,707.0
44.62495398521423,717.0
44.63448619842529,686.0
44.645187854766846,713.0
44.65535807609558,717.0
44.665363073349,720.0
44.67478108406067,709.0
44.684449195861816,709.0
44.69473910331726,713.0
44.70513701438904,710.0
44.71515083312988,709.0
44.724568128585815,712.0
44.73526620864868,721.0
44.74520397186279,714.0
44.755380153656006,715.0
44.76537823677063,718.0
44.77482295036316,717.0
44.78441095352173,715.0
44.795300245285034,716.0
44.805338859558105,714.0
44.815386056900024,716.0
44.824830055236816,711.0
44.83443808555603,722.0
44.8452410697937,717.0
44.85537004470825,715.0
44.86548614501953,704.0
44.87491512298584,717.0
44.88447904586792,710.0
44.895390033721924,696.0
44.90532994270325,714.0
44.915489196777344,713.0
44.924949169158936,690.0
44.93445301055908,697.0
44.945290088653564,718.0
44.955339193344116,720.0
44.96545910835266,701.0
44.97485709190369,724.0
44.984424114227295,726.0
44.99526405334473,721.0
45.005348920822144,692.0
45.015438079833984,718.0
45.02492594718933,717.0
45.034435987472534,717.0
45.04520106315613,720.0
45.05531716346741,716.0
45.0653510093689,729.0
45.07507586479187,727.0
45.084949016571045,721.0
45.094233989715576,720.0
45.10483407974243,722.0
45.115352153778076,717.0
45.12462019920349,715.0
45.134974002838135,712.0
45.14449691772461,719.0
45.155194997787476,695.0
45.165364027023315,728.0
45.174834966659546,726.0
45.18447208404541,725.0
45.194350242614746,709.0
45.20443391799927,724.0
45.21524786949158,723.0
45.22423720359802,715.0
45.234472036361694,724.0
45.245408058166504,714.0
45.25488901138306,716.0
45.265340089797974,719.0
45.27517914772034,718.0
45.28483200073242,712.0
45.29475402832031,716.0
45.30533790588379,707.0
45.315922021865845,707.0
45.32511901855469,709.0
45.33445620536804,706.0
45.34538292884827,708.0
45.355308055877686,713.0
45.3654510974884,716.0
45.374879121780396,704.0
45.38447904586792,713.0
45.39534282684326,715.0
45.40531802177429,720.0
45.41536211967468,713.0
45.42475700378418,721.0
45.43542814254761,718.0
45.4451789855957,713.0
45.455329179763794,711.0
45.465306997299194,711.0
45.47472810745239,703.0
45.48541593551636,702.0
45.49523591995239,705.0
45.505403995513916,710.0
45.51546001434326,699.0
45.524879932403564,702.0
45.53445792198181,709.0
45.54499101638794,711.0
45.555320262908936,708.0
45.56533718109131,712.0
45.57475686073303,712.0
45.58544111251831,718.0
45.595070123672485,716.0
45.60532999038696,714.0
45.61534905433655,721.0
45.62481999397278,699.0
45.6343891620636,718.0
45.645318031311035,718.0
45.655341148376465,715.0
45.665316104888916,718.0
45.67473316192627,720.0
45.685439109802246,724.0
45.69535493850708,722.0
45.70532989501953,713.0
45.71536111831665,720.0
45.724782943725586,713.0
45.735398054122925,717.0
45.745315074920654,706.0
45.75537323951721,706.0
45.76548218727112,711.0
45.77499008178711,712.0
45.784449100494385,713.0
45.79508304595947,718.0
45.80465006828308,718.0
45.8156099319458,720.0
45.824541091918945,717.0
45.8344841003418,723.0
45.84442615509033,721.0
45.8552451133728,708.0
45.86562418937683,701.0
45.874826192855835,723.0
45.88485407829285,719.0
45.895297050476074,721.0
45.90497422218323,720.0
45.915393114089966,717.0
45.924854040145874,719.0
45.935226917266846,721.0
45.945056200027466,730.0
45.95435905456543,699.0
45.96565318107605,720.0
45.9753041267395,698.0
45.98503518104553,715.0
45.994527101516724,720.0
46.005321979522705,723.0
46.01595616340637,734.0
46.024333238601685,730.0
46.03501605987549,724.0
46.04485607147217,722.0
46.05463719367981,726.0
46.06576418876648,716.0
46.075263023376465,708.0
46.0849711894989,715.0
46.09483027458191,715.0
46.104740142822266,704.0
46.11568903923035,712.0
46.12522506713867,711.0
46.13486695289612,711.0
46.144349098205566,711.0
46.155309200286865,708.0
46.165348291397095,708.0
46.17483711242676,715.0
46.18446612358093,718.0
46.19546413421631,703.0
46.205841064453125,715.0
46.21456599235535,714.0
46.225022077560425,713.0
46.23446607589722,711.0
46.245182037353516,714.0
46.255311012268066,711.0
46.26538014411926,681.0
46.27484703063965,706.0
46.284579277038574,713.0
46.29548192024231,697.0
46.30579209327698,709.0
46.31456017494202,710.0
46.325056076049805,710.0
46.33447504043579,691.0
46.34536910057068,685.0
46.35530209541321,712.0
46.365391969680786,690.0
46.374906063079834,711.0
46.38444900512695,715.0
46.395437240600586,710.0
46.40579414367676,711.0
46.414129972457886,703.0
46.42452907562256,710.0
46.435307025909424,709.0
46.44518804550171,694.0
46.45481204986572,711.0
46.46475005149841,719.0
46.475298166275024,712.0
46.48500299453735,693.0
46.49482822418213,722.0
46.504723072052,726.0
