time,emg
0.0086822509765625,572.0
0.016309022903442383,576.0
0.023815155029296875,579.0
0.03241896629333496,583.0
0.04036903381347656,583.0
0.047944068908691406,595.0
0.05317282676696777,604.0
0.0579991340637207,618.0
0.06440496444702148,628.0
0.0689241886138916,637.0
0.0757138729095459,623.0
0.0811612606048584,631.0
0.08672499656677246,662.0
0.09155797958374023,660.0
0.09859490394592285,647.0
0.10561394691467285,636.0
0.1105189323425293,623.0
0.11787104606628418,595.0
0.12321805953979492,612.0
0.1286320686340332,593.0
0.13444304466247559,587.0
0.13880491256713867,613.0
0.14390325546264648,613.0
0.15076613426208496,619.0
0.15525507926940918,622.0
0.15966105461120605,624.0
0.1644299030303955,613.0
0.16902589797973633,631.0
0.17598891258239746,634.0
0.18036508560180664,623.0
0.18430304527282715,643.0
0.1888430118560791,647.0
0.19391202926635742,652.0
0.20083403587341309,658.0
0.20520687103271484,653.0
0.20902109146118164,664.0
0.214277982711792,667.0
0.21925592422485352,665.0
0.22606825828552246,662.0
0.23081588745117188,667.0
0.23487496376037598,670.0
0.242995023727417,657.0
0.24850916862487793,646.0
0.2540011405944824,631.0
0.2599620819091797,657.0
0.26816701889038086,657.0
0.2763099670410156,664.0
0.28166794776916504,664.0
0.2867910861968994,668.0
0.2916841506958008,669.0
0.29821109771728516,670.0
0.3036048412322998,677.0
0.30940890312194824,668.0
0.3147010803222656,652.0
0.31996726989746094,668.0
0.32523608207702637,655.0
0.3307821750640869,653.0
0.33615994453430176,649.0
0.3413228988647461,661.0
0.34662795066833496,640.0
0.35138392448425293,654.0
0.3566551208496094,653.0
0.36472320556640625,656.0
0.3726940155029297,650.0
0.380950927734375,649.0
0.38637709617614746,648.0
0.39227795600891113,657.0
0.39812612533569336,622.0
0.4030470848083496,630.0
0.4076211452484131,633.0
0.4144430160522461,641.0
0.41980624198913574,641.0
0.4254441261291504,619.0
0.43061113357543945,651.0
0.4361109733581543,641.0
0.4454619884490967,652.0
0.45404887199401855,644.0
0.463482141494751,641.0
0.46840906143188477,646.0
0.47827816009521484,647.0
0.48479723930358887,655.0
0.49117207527160645,648.0
0.4989919662475586,641.0
0.5052361488342285,636.0
0.510159969329834,635.0
0.515667200088501,639.0
0.5234620571136475,637.0
0.5320620536804199,634.0
0.538132905960083,629.0
0.5428969860076904,624.0
0.5491108894348145,626.0
0.5557820796966553,628.0
0.5604770183563232,618.0
0.5658872127532959,612.0
0.5719640254974365,637.0
0.5777361392974854,615.0
0.5838649272918701,641.0
0.5893211364746094,638.0
0.594541072845459,643.0
0.5990571975708008,646.0
0.6047751903533936,620.0
0.6089150905609131,641.0
0.6141459941864014,639.0
0.6198761463165283,642.0
0.6249189376831055,644.0
0.6327972412109375,646.0
0.6386568546295166,654.0
0.6443009376525879,645.0
0.6534440517425537,653.0
0.6589789390563965,617.0
0.6644489765167236,639.0
0.6693768501281738,638.0
0.6742630004882812,636.0
0.6798150539398193,645.0
0.6847579479217529,636.0
0.690366268157959,653.0
0.694828987121582,651.0
0.6996641159057617,657.0
0.7070682048797607,631.0
0.7141180038452148,650.0
0.7195301055908203,647.0
0.7255160808563232,650.0
0.7304689884185791,654.0
0.7356081008911133,652.0
0.744063138961792,618.0
0.7516791820526123,649.0
0.7596211433410645,639.0
0.7649600505828857,643.0
0.7732250690460205,626.0
0.7814829349517822,641.0
0.7896511554718018,628.0
0.7950880527496338,641.0
0.8006079196929932,638.0
0.8056631088256836,614.0
0.8107881546020508,635.0
0.8188400268554688,612.0
0.8262948989868164,638.0
0.8318231105804443,621.0
0.8399519920349121,634.0
0.8479700088500977,632.0
0.8533751964569092,638.0
0.8589632511138916,639.0
0.8650569915771484,609.0
0.8702330589294434,614.0
0.8748741149902344,631.0
0.879857063293457,628.0
0.8855421543121338,631.0
0.8946940898895264,628.0
0.9006130695343018,626.0
0.9061522483825684,610.0
0.9107491970062256,624.0
0.9180021286010742,623.0
0.9236021041870117,602.0
0.9283812046051025,617.0
0.9332132339477539,618.0
0.9389510154724121,598.0
0.944688081741333,609.0
0.9506270885467529,618.0
0.9568932056427002,618.0
0.9657340049743652,623.0
0.9721381664276123,610.0
0.9773900508880615,621.0
0.98238205909729,594.0
0.9892950057983398,618.0
0.994102954864502,591.0
1.0018110275268555,614.0
1.0099430084228516,622.0
1.014894962310791,623.0
1.0189621448516846,628.0
1.028102159500122,613.0
1.0339701175689697,615.0
1.039194107055664,614.0
1.044349193572998,594.0
1.0500142574310303,607.0
1.0549170970916748,624.0
1.0597028732299805,610.0
1.065993070602417,632.0
1.0732698440551758,630.0
1.0816271305084229,640.0
1.0896501541137695,636.0
1.09511399269104,642.0
1.1011409759521484,641.0
1.1060400009155273,646.0
1.1110150814056396,653.0
1.1159389019012451,644.0
1.123311996459961,634.0
1.1312739849090576,612.0
1.1368029117584229,636.0
1.1422502994537354,633.0
1.1481971740722656,633.0
1.156013011932373,629.0
1.1612720489501953,623.0
1.1672070026397705,635.0
1.1723320484161377,646.0
1.1772761344909668,651.0
1.1823639869689941,656.0
1.1896932125091553,640.0
1.1959290504455566,665.0
1.2002580165863037,677.0
1.2049179077148438,662.0
1.2097570896148682,662.0
1.215036153793335,628.0
1.2226409912109375,622.0
1.2282600402832031,637.0
1.2339701652526855,636.0
1.239267110824585,624.0
1.2443900108337402,636.0
1.249535083770752,646.0
1.257077932357788,640.0
1.2650091648101807,632.0
1.2726011276245117,638.0
1.2790420055389404,633.0
1.283912181854248,635.0
1.2886199951171875,620.0
1.2938129901885986,639.0
1.3010520935058594,642.0
1.30641508102417,640.0
1.3146181106567383,645.0
1.322551965713501,630.0
1.3283612728118896,627.0
1.33321213722229,624.0
1.3385372161865234,616.0
1.3442950248718262,609.0
1.3527100086212158,610.0
1.3607232570648193,597.0
1.3680291175842285,607.0
1.3733470439910889,613.0
1.3808932304382324,622.0
1.3869118690490723,601.0
1.3917391300201416,602.0
1.3966090679168701,624.0
1.4009120464324951,626.0
1.405212163925171,623.0
1.409074068069458,621.0
1.4139251708984375,599.0
1.4195339679718018,620.0
1.4275779724121094,635.0
1.4356660842895508,620.0
1.4428820610046387,632.0
1.447857141494751,637.0
1.4525001049041748,648.0
1.4612531661987305,634.0
1.466811180114746,637.0
1.4721651077270508,646.0
1.477428913116455,628.0
1.4851570129394531,616.0
1.4931151866912842,607.0
1.4987549781799316,590.0
1.5059559345245361,589.0
1.5114021301269531,595.0
1.5157909393310547,583.0
1.5226500034332275,588.0
1.5278780460357666,592.0
1.5327820777893066,586.0
1.5398061275482178,592.0
1.548172950744629,594.0
1.556074857711792,594.0
1.5615921020507812,601.0
1.567291021347046,588.0
1.5729272365570068,619.0
1.5776219367980957,624.0
1.5828499794006348,636.0
1.5898301601409912,630.0
1.5947580337524414,651.0
1.599600076675415,665.0
1.606382131576538,657.0
1.6117370128631592,635.0
1.617323875427246,660.0
1.6224920749664307,657.0
1.627295970916748,664.0
1.6357779502868652,651.0
1.641449213027954,654.0
1.6484761238098145,652.0
1.6569089889526367,622.0
1.6649482250213623,648.0
1.6701648235321045,638.0
1.675734043121338,640.0
1.6811580657958984,644.0
1.6898422241210938,611.0
1.6976120471954346,636.0
1.7030761241912842,637.0
1.7075779438018799,636.0
1.7142419815063477,636.0
1.719146966934204,641.0
1.7264690399169922,649.0
1.7320711612701416,647.0
1.7399389743804932,654.0
1.7479960918426514,649.0
1.7565929889678955,626.0
1.7647888660430908,624.0
1.7738161087036133,657.0
1.7793231010437012,645.0
1.7858221530914307,623.0
1.7953441143035889,644.0
1.7997360229492188,648.0
1.807183027267456,624.0
1.8153131008148193,646.0
1.8226120471954346,642.0
1.8281481266021729,624.0
1.8328659534454346,633.0
1.8407032489776611,612.0
1.848926067352295,631.0
1.855391263961792,627.0
1.8598499298095703,632.0
1.864997148513794,628.0
1.8705940246582031,639.0
1.8764829635620117,625.0
1.882627010345459,628.0
1.8905189037322998,606.0
1.8971118927001953,609.0
1.9023258686065674,628.0
1.9095962047576904,635.0
1.9157259464263916,632.0
1.9211790561676025,631.0
1.9272470474243164,610.0
1.9351341724395752,629.0
1.944261074066162,618.0
1.9498720169067383,623.0
1.9552860260009766,605.0
1.9600350856781006,619.0
1.9693641662597656,618.0
1.9773030281066895,628.0
1.9818720817565918,625.0
1.9872429370880127,630.0
1.9920401573181152,635.0
1.9971880912780762,643.0
2.0026190280914307,657.0
2.007688045501709,638.0
2.0130491256713867,666.0
2.0179030895233154,659.0
2.0229039192199707,654.0
2.0281481742858887,642.0
2.0335819721221924,612.0
2.0394668579101562,628.0
2.044929027557373,626.0
2.050633192062378,626.0
2.0563430786132812,630.0
2.061944007873535,612.0
2.0671401023864746,629.0
2.072700023651123,637.0
2.0778989791870117,634.0
2.0833311080932617,631.0
2.088884115219116,639.0
2.093999147415161,639.0
2.101301908493042,636.0
2.1068460941314697,639.0
2.1121950149536133,634.0
2.1170878410339355,646.0
2.1221160888671875,614.0
2.1272339820861816,636.0
2.1346089839935303,631.0
2.1408700942993164,646.0
2.1463851928710938,638.0
2.1521971225738525,641.0
2.159853935241699,654.0
2.165112018585205,646.0
2.1701791286468506,630.0
2.1756839752197266,652.0
2.181091070175171,655.0
2.185896158218384,654.0
2.1912591457366943,631.0
2.198352098464966,649.0
2.20668625831604,653.0
2.2158119678497314,623.0
2.221921920776367,646.0
2.226666212081909,642.0
2.234527826309204,636.0
2.2401351928710938,613.0
2.244791030883789,631.0
2.250087022781372,642.0
2.256326198577881,641.0
2.2650139331817627,611.0
2.273237943649292,629.0
2.2812929153442383,633.0
2.286752939224243,615.0
2.292026996612549,626.0
2.2965950965881348,624.0
2.301565170288086,634.0
2.309972047805786,623.0
2.317986011505127,624.0
2.323693037033081,617.0
2.3289389610290527,618.0
2.334681987762451,620.0
2.3401660919189453,622.0
2.3460042476654053,631.0
2.35062313079834,607.0
2.356410026550293,631.0
2.361908197402954,611.0
2.3671340942382812,634.0
2.372267961502075,629.0
2.377322196960449,631.0
2.384838104248047,623.0
2.390315055847168,626.0
2.3957509994506836,625.0
2.4017791748046875,634.0
2.409520149230957,626.0
2.414436101913452,628.0
2.4190518856048584,614.0
2.4276058673858643,616.0
2.433600902557373,627.0
2.4388961791992188,638.0
2.444088935852051,646.0
2.451411247253418,621.0
2.4567840099334717,654.0
2.461618185043335,648.0
2.467048168182373,660.0
2.472121000289917,639.0
2.4771041870117188,643.0
2.484740972518921,648.0
2.4902830123901367,625.0
2.4957222938537598,642.0
2.5005850791931152,653.0
2.5051870346069336,645.0
2.5111210346221924,632.0
2.518454074859619,652.0
2.5265750885009766,639.0
2.5350399017333984,653.0
2.5432400703430176,655.0
2.551487922668457,655.0
2.559197187423706,659.0
2.564846992492676,657.0
2.5701990127563477,653.0
2.575220823287964,638.0
2.5798940658569336,649.0
2.5857880115509033,644.0
2.593940258026123,645.0
2.6005001068115234,644.0
2.605870008468628,652.0
2.611368179321289,657.0
2.6168951988220215,656.0
2.62231707572937,664.0
2.627890110015869,658.0
2.633117198944092,664.0
2.638666868209839,653.0
2.643933057785034,664.0
2.6509668827056885,654.0
2.6568732261657715,647.0
2.664987087249756,655.0
2.671260118484497,640.0
2.6771340370178223,647.0
2.685119867324829,648.0
2.6928648948669434,646.0
2.6982529163360596,615.0
2.7037129402160645,640.0
2.708444118499756,648.0
2.71384596824646,636.0
2.7194769382476807,619.0
2.725001096725464,611.0
2.7305450439453125,642.0
2.735769033432007,635.0
2.7432990074157715,636.0
2.751162052154541,639.0
2.756350040435791,636.0
2.7618231773376465,643.0
2.7666029930114746,648.0
2.77378511428833,636.0
2.779360055923462,634.0
2.7855610847473145,633.0
2.792654037475586,628.0
2.797274112701416,627.0
2.8012781143188477,619.0
2.8054912090301514,623.0
2.8106441497802734,596.0
2.8177330493927,614.0
2.822648048400879,620.0
2.828108072280884,617.0
2.833043098449707,614.0
2.840078115463257,617.0
2.8476860523223877,618.0
2.8529460430145264,630.0
2.8585619926452637,614.0
2.8639750480651855,628.0
2.8693530559539795,633.0
2.8771259784698486,612.0
2.8844871520996094,642.0
2.8901610374450684,625.0
2.897995948791504,629.0
2.9043638706207275,627.0
2.9089250564575195,609.0
2.9139859676361084,622.0
2.919167995452881,616.0
2.926568031311035,624.0
2.9347410202026367,609.0
2.940441131591797,625.0
2.9479920864105225,629.0
2.9563820362091064,638.0
2.961996078491211,644.0
2.9677510261535645,635.0
2.973947048187256,637.0
2.981739044189453,651.0
2.987377166748047,634.0
2.992950916290283,611.0
2.9976511001586914,630.0
3.0027270317077637,619.0
3.0097780227661133,597.0
3.0153000354766846,617.0
3.02278208732605,592.0
3.02891206741333,621.0
3.0338470935821533,612.0
3.0393619537353516,628.0
3.0441300868988037,631.0
3.049030065536499,615.0
3.0559751987457275,641.0
3.061167001724243,648.0
3.068819046020508,644.0
3.077260971069336,666.0
3.0857162475585938,660.0
3.093251943588257,662.0
3.1004650592803955,651.0
3.1053380966186523,636.0
3.109302043914795,638.0
3.1142160892486572,614.0
3.119234085083008,613.0
3.1271111965179443,590.0
3.1347501277923584,607.0
3.139617919921875,604.0
3.1448209285736084,615.0
3.1501030921936035,615.0
3.154985189437866,612.0
3.1597740650177,624.0
3.1654019355773926,596.0
3.1729378700256348,625.0
3.183112144470215,617.0
3.1896281242370605,625.0
3.1947429180145264,615.0
3.1997249126434326,611.0
3.20450496673584,645.0
3.2091429233551025,640.0
3.214215040206909,623.0
3.219862937927246,646.0
3.2255568504333496,620.0
3.230515241622925,637.0
3.2361068725585938,626.0
3.2418839931488037,609.0
3.2473320960998535,619.0
3.252769947052002,619.0
3.2609379291534424,619.0
3.266573905944824,593.0
3.2719180583953857,619.0
3.2767419815063477,599.0
3.284956216812134,628.0
3.2932651042938232,626.0
3.30102801322937,639.0
3.3059821128845215,619.0
3.3108839988708496,618.0
3.3194620609283447,622.0
3.327660083770752,595.0
3.332219123840332,606.0
3.3400721549987793,629.0
3.3484368324279785,626.0
3.3556530475616455,627.0
3.3611180782318115,625.0
3.3671069145202637,631.0
3.3727540969848633,623.0
3.3765249252319336,641.0
3.382296085357666,640.0
3.3899149894714355,642.0
3.3948071002960205,648.0
3.3996710777282715,668.0
3.4068450927734375,658.0
3.4126172065734863,673.0
3.4172892570495605,647.0
3.422736167907715,653.0
3.427809953689575,641.0
3.4326651096343994,627.0
3.4398272037506104,623.0
3.4451451301574707,602.0
3.4492790699005127,624.0
3.456829071044922,626.0
3.4618630409240723,633.0
3.467777967453003,636.0
3.4727120399475098,641.0
3.4776830673217773,647.0
3.4830119609832764,658.0
3.4892749786376953,644.0
3.49373197555542,665.0
3.501735210418701,644.0
3.509711980819702,673.0
3.515255928039551,668.0
3.523583173751831,656.0
3.5293850898742676,690.0
3.5337629318237305,676.0
3.5384161472320557,655.0
3.5422329902648926,668.0
3.5467100143432617,673.0
3.551382064819336,662.0
3.5565431118011475,657.0
3.5609419345855713,668.0
3.5679781436920166,654.0
3.573122978210449,654.0
3.5777080059051514,647.0
3.582386016845703,653.0
3.5901520252227783,650.0
3.595618963241577,658.0
3.60115909576416,652.0
3.6069631576538086,644.0
3.614638090133667,654.0
3.6204910278320312,657.0
3.626091957092285,651.0
3.6317501068115234,653.0
3.636998176574707,635.0
3.6422200202941895,655.0
3.6480202674865723,652.0
3.6535091400146484,646.0
3.659152030944824,645.0
3.6649169921875,646.0
3.670361042022705,647.0
3.6757888793945312,653.0
3.6815521717071533,643.0
3.686551094055176,648.0
3.691735029220581,662.0
3.6966052055358887,661.0
3.7023680210113525,647.0
3.7078170776367188,654.0
3.7150869369506836,633.0
3.7231650352478027,631.0
3.7314631938934326,647.0
3.7364749908447266,644.0
3.7415831089019775,642.0
3.7465219497680664,639.0
3.7523438930511475,638.0
3.7608730792999268,644.0
3.7696030139923096,644.0
3.774566173553467,636.0
3.781898021697998,630.0
3.7900309562683105,610.0
3.7981622219085693,620.0
3.8061180114746094,639.0
3.811768054962158,651.0
3.816365957260132,634.0
3.823263168334961,664.0
3.8316450119018555,662.0
3.839290142059326,644.0
3.844691038131714,664.0
3.85064697265625,666.0
3.8559389114379883,668.0
3.8609161376953125,668.0
3.868199110031128,658.0
3.876646041870117,664.0
3.8840320110321045,666.0
3.8888370990753174,662.0
3.8929061889648438,659.0
3.898097038269043,667.0
3.903022050857544,632.0
3.9109668731689453,656.0
3.918975830078125,631.0
3.9266231060028076,656.0
3.9348671436309814,637.0
3.9433400630950928,636.0
3.9512710571289062,651.0
3.9566619396209717,636.0
3.9621028900146484,650.0
3.9672539234161377,651.0
3.971829891204834,661.0
3.9778010845184326,650.0
3.985750913619995,656.0
3.993936061859131,649.0
4.0014262199401855,652.0
4.006231069564819,644.0
4.011122226715088,658.0
4.0159149169921875,641.0
4.023081064224243,632.0
4.028112173080444,659.0
4.035653114318848,650.0
4.0417211055755615,621.0
4.048426151275635,642.0
4.055871963500977,627.0
4.061300277709961,653.0
4.067286014556885,638.0
4.072206020355225,650.0
4.077256202697754,647.0
4.082110166549683,626.0
4.089670181274414,640.0
4.094708204269409,640.0
4.099138021469116,647.0
4.106162071228027,638.0
4.11165714263916,625.0
4.117277145385742,615.0
4.122459173202515,620.0
4.127507209777832,609.0
4.134921073913574,622.0
4.1427319049835205,625.0
4.148820877075195,632.0
4.153163909912109,598.0
4.158975839614868,629.0
4.164112091064453,643.0
4.169002294540405,641.0
4.173675060272217,641.0
4.181397914886475,646.0
4.186761140823364,638.0
4.192659139633179,637.0
4.1962730884552,640.0
4.201208114624023,627.0
4.206353187561035,623.0
4.211220979690552,620.0
4.216705083847046,627.0
4.222208023071289,620.0
4.226712942123413,611.0
4.2355570793151855,616.0
4.24154806137085,614.0
4.24711799621582,629.0
4.252308130264282,612.0
4.260587930679321,611.0
4.266237020492554,620.0
4.273714065551758,612.0
4.279593229293823,612.0
4.284606218338013,618.0
4.290252923965454,616.0
4.295102119445801,604.0
4.29966402053833,623.0
4.305244207382202,623.0
4.310105085372925,602.0
4.318237066268921,617.0
4.327735900878906,615.0
4.332714080810547,619.0
4.3381640911102295,612.0
4.3428730964660645,629.0
4.3488099575042725,619.0
4.354990005493164,604.0
4.3597800731658936,631.0
4.365448236465454,634.0
4.3732829093933105,634.0
4.381616115570068,612.0
4.390361070632935,632.0
4.398015260696411,635.0
4.403454065322876,622.0
4.409394025802612,624.0
4.414761066436768,635.0
4.419721841812134,614.0
4.424724102020264,618.0
4.432178020477295,610.0
4.439824104309082,608.0
4.445268154144287,582.0
4.4510979652404785,575.0
4.457200050354004,606.0
4.464920997619629,597.0
4.473138093948364,582.0
4.481993913650513,618.0
4.490605115890503,635.0
4.498493194580078,643.0
4.506278991699219,647.0
4.511120080947876,666.0
4.5162880420684814,656.0
4.524050235748291,650.0
4.529734134674072,646.0
4.536029100418091,644.0
4.541038990020752,609.0
4.548770904541016,598.0
4.554764986038208,603.0
4.560955047607422,608.0
4.568065881729126,602.0
4.572696924209595,609.0
4.576763153076172,587.0
4.584381103515625,605.0
4.589407205581665,615.0
4.594480991363525,619.0
4.599245071411133,624.0
4.606703996658325,634.0
4.6121509075164795,649.0
4.617717027664185,636.0
4.62286901473999,620.0
4.6273651123046875,645.0
4.634599208831787,645.0
4.639189004898071,644.0
4.643280029296875,643.0
4.652659177780151,637.0
4.658185958862305,641.0
4.663588047027588,608.0
4.669012069702148,629.0
4.676432132720947,620.0
4.682424068450928,629.0
4.690306901931763,627.0
4.697993993759155,625.0
4.70293116569519,614.0
4.707950115203857,639.0
4.715695142745972,648.0
4.72122597694397,648.0
4.727519273757935,660.0
4.735820055007935,661.0
4.744080066680908,668.0
4.752880096435547,637.0
4.758393049240112,660.0
4.764240980148315,663.0
4.769418001174927,661.0
4.775069236755371,652.0
4.780905246734619,655.0
4.785834074020386,652.0
4.794542074203491,652.0
4.800479888916016,630.0
4.805248975753784,654.0
4.810445070266724,640.0
4.8196861743927,664.0
4.825593948364258,678.0
4.831071853637695,672.0
4.836261034011841,672.0
4.841748952865601,673.0
4.847026109695435,653.0
4.8516011238098145,673.0
4.86000919342041,669.0
4.866183042526245,644.0
4.873810052871704,670.0
4.882263898849487,657.0
4.88845419883728,666.0
4.893373012542725,685.0
4.900696039199829,648.0
4.905755996704102,667.0
4.909827947616577,660.0
4.916388988494873,642.0
4.9224700927734375,659.0
4.927855968475342,664.0
4.9338390827178955,655.0
4.938724040985107,671.0
4.943889141082764,662.0
4.951536178588867,663.0
4.958609104156494,672.0
4.964284181594849,644.0
4.970124959945679,672.0
4.9749531745910645,664.0
4.979717969894409,665.0
4.984485149383545,653.0
4.989222049713135,657.0
4.994587182998657,655.0
5.001657962799072,633.0
5.008874893188477,639.0
5.014327049255371,636.0
5.020101070404053,653.0
5.02536416053772,652.0
5.030336856842041,654.0
5.035467863082886,621.0
5.0432610511779785,644.0
5.050802230834961,632.0
5.05675196647644,643.0
5.064815998077393,648.0
5.072777271270752,648.0
5.078690052032471,652.0
5.084062099456787,656.0
5.089615106582642,653.0
5.0940940380096436,653.0
5.100697040557861,651.0
5.105072975158691,647.0
5.109043121337891,646.0
5.1141321659088135,638.0
5.119274139404297,619.0
5.126452207565308,639.0
5.131778001785278,624.0
5.139474153518677,622.0
5.144949913024902,612.0
5.150599002838135,618.0
5.155604839324951,615.0
5.1600182056427,626.0
5.167940139770508,617.0
5.173403024673462,624.0
5.17797589302063,634.0
5.182991981506348,626.0
5.188529014587402,632.0
5.192750930786133,639.0
5.197237968444824,629.0
5.20169997215271,632.0
5.209335088729858,638.0
5.214613914489746,612.0
5.220103025436401,630.0
5.225593090057373,636.0
5.230985879898071,641.0
5.235728025436401,637.0
5.24062705039978,645.0
5.248049020767212,647.0
5.253366947174072,639.0
5.258171081542969,650.0
5.263369083404541,646.0
5.268204927444458,644.0
5.275672912597656,619.0
5.281231164932251,639.0
5.286777019500732,644.0
5.291784048080444,644.0
5.297355890274048,643.0
5.302333116531372,628.0
5.309751987457275,645.0
5.315230131149292,639.0
5.322645902633667,625.0
5.328298091888428,628.0
5.333935022354126,634.0
5.3391242027282715,633.0
5.344218969345093,632.0
5.351487874984741,630.0
5.356778860092163,633.0
5.361278057098389,635.0
5.366245985031128,614.0
5.371577024459839,634.0
5.376723051071167,615.0
5.384346961975098,630.0
5.390048027038574,625.0
5.39495587348938,605.0
5.400620937347412,630.0
5.405701160430908,633.0
5.410837888717651,634.0
5.418087005615234,635.0
5.4235241413116455,638.0
5.428091049194336,646.0
5.432909965515137,616.0
5.439871072769165,623.0
5.448260068893433,634.0
5.456201076507568,634.0
5.461876153945923,630.0
5.466898202896118,625.0
5.472494125366211,622.0
5.478121042251587,624.0
5.4832680225372314,625.0
5.488492012023926,621.0
5.4924280643463135,622.0
5.497025966644287,622.0
5.50211501121521,628.0
5.509187936782837,630.0
5.514699935913086,632.0
5.519705057144165,609.0
5.524183034896851,631.0
5.531121015548706,622.0
5.536550998687744,614.0
5.54228401184082,615.0
5.547373056411743,615.0
5.55248498916626,617.0
5.560014009475708,627.0
5.568224906921387,606.0
5.576566934585571,611.0
5.584947109222412,614.0
5.590748071670532,605.0
5.597849130630493,611.0
5.603693962097168,600.0
5.609161138534546,612.0
5.614687919616699,595.0
5.620030164718628,615.0
5.625588893890381,616.0
5.631052017211914,600.0
5.636610984802246,600.0
5.641838073730469,615.0
5.646774053573608,615.0
5.651530027389526,616.0
5.656388998031616,624.0
5.661492824554443,628.0
5.666282892227173,623.0
5.673069953918457,624.0
5.680837154388428,608.0
5.68625807762146,617.0
5.69224214553833,629.0
5.696977138519287,657.0
5.702010154724121,652.0
5.709480047225952,659.0
5.7145819664001465,637.0
5.719519138336182,632.0
5.727784156799316,649.0
5.733720064163208,643.0
5.739452123641968,620.0
5.744768857955933,622.0
5.749547004699707,615.0
5.756444215774536,602.0
5.7621750831604,601.0
5.767652988433838,584.0
5.771407127380371,579.0
5.776493072509766,605.0
5.781348943710327,614.0
5.786525011062622,628.0
5.791546106338501,606.0
5.797928094863892,636.0
5.805883169174194,636.0
5.814324140548706,641.0
5.820106029510498,635.0
5.824925184249878,622.0
5.830390930175781,628.0
5.835510015487671,603.0
5.8430869579315186,625.0
5.848407983779907,621.0
5.855647087097168,626.0
5.860980987548828,595.0
5.866976022720337,619.0
5.872451066970825,612.0
5.877673149108887,627.0
5.884948253631592,608.0
5.892895936965942,603.0
5.898590087890625,598.0
5.906260967254639,615.0
5.9142210483551025,600.0
5.919619083404541,623.0
5.92560601234436,633.0
5.930753946304321,617.0
5.935585975646973,626.0
5.943313121795654,614.0
5.9508020877838135,631.0
5.956183910369873,629.0
5.9618470668792725,625.0
5.966943979263306,629.0
5.972168207168579,618.0
5.977307081222534,614.0
5.983293056488037,609.0
5.989339113235474,624.0
5.9934470653533936,607.0
6.001247882843018,615.0
6.0072181224823,613.0
6.012616157531738,607.0
6.017578840255737,577.0
6.0237531661987305,608.0
6.029519081115723,613.0
6.0345618724823,617.0
6.040789842605591,623.0
6.048431158065796,628.0
6.057066917419434,642.0
6.063885927200317,643.0
6.069252967834473,644.0
6.075202941894531,641.0
6.082064151763916,646.0
6.089958190917969,636.0
6.095427989959717,640.0
6.101096153259277,627.0
6.105746030807495,636.0
6.1108009815216064,644.0
6.118113994598389,648.0
6.123270034790039,654.0
6.127925872802734,657.0
6.136007070541382,651.0
6.141311883926392,625.0
6.148993968963623,649.0
6.156476020812988,627.0
6.1619110107421875,653.0
6.167740106582642,660.0
6.173344850540161,650.0
6.177968978881836,658.0
6.183005094528198,635.0
6.1902501583099365,645.0
6.194794178009033,660.0
6.19957709312439,648.0
6.2069411277771,659.0
6.215146064758301,664.0
6.223231077194214,660.0
6.2293291091918945,664.0
6.233927011489868,673.0
6.239841938018799,669.0
6.244714975357056,663.0
6.249527931213379,673.0
6.254905939102173,663.0
6.260438919067383,669.0
6.26894211769104,658.0
6.27593994140625,659.0
6.281076192855835,651.0
6.285981178283691,623.0
6.294767141342163,645.0
6.300356149673462,637.0
6.305730104446411,629.0
6.310803174972534,634.0
6.319002151489258,615.0
6.327418088912964,632.0
6.335086107254028,619.0
6.34310507774353,614.0
6.348706007003784,651.0
6.3542540073394775,645.0
6.358996868133545,623.0
6.363697052001953,627.0
6.3694071769714355,627.0
6.377212047576904,640.0
6.385507106781006,640.0
6.393393039703369,616.0
6.4013731479644775,633.0
6.406748056411743,635.0
6.41225004196167,634.0
6.417176961898804,615.0
6.422384977340698,635.0
6.427354097366333,628.0
6.434535026550293,626.0
6.439747095108032,625.0
6.4446680545806885,610.0
6.45317816734314,606.0
6.458935976028442,611.0
6.4645280838012695,600.0
6.469064235687256,621.0
6.475487232208252,636.0
6.480424165725708,617.0
6.484802961349487,626.0
6.489957094192505,622.0
6.497039079666138,621.0
6.502190113067627,630.0
6.508786201477051,638.0
6.514139175415039,631.0
6.519674062728882,634.0
6.528595209121704,634.0
6.533008098602295,631.0
6.538536071777344,636.0
6.5433080196380615,641.0
6.550750255584717,633.0
6.55620813369751,625.0
6.561844110488892,635.0
6.566961050033569,642.0
6.57258415222168,645.0
6.577625036239624,638.0
6.582756996154785,634.0
6.590040922164917,635.0
6.598052978515625,632.0
6.603522062301636,633.0
6.609414100646973,632.0
6.6138060092926025,634.0
6.618885040283203,605.0
6.626536130905151,625.0
6.634757041931152,616.0
6.640426158905029,630.0
6.6480700969696045,633.0
6.656245946884155,612.0
6.661733150482178,628.0
6.667273044586182,643.0
6.67264199256897,616.0
6.6775500774383545,634.0
6.685019016265869,633.0
6.692832946777344,630.0
6.698142051696777,627.0
6.703711986541748,623.0
6.709134101867676,624.0
6.714383125305176,619.0
6.719974994659424,592.0
6.725097179412842,612.0
6.7301130294799805,588.0
6.735414981842041,607.0
6.7405030727386475,589.0
6.747638940811157,612.0
6.752924203872681,609.0
6.758899211883545,580.0
6.764080047607422,617.0
6.7689409255981445,607.0
6.773859977722168,608.0
6.781264066696167,610.0
6.789490222930908,601.0
6.79499626159668,610.0
6.80062198638916,608.0
6.805760860443115,611.0
6.810611248016357,583.0
6.818409204483032,582.0
6.826137065887451,574.0
6.831472158432007,583.0
6.83964991569519,579.0
6.847744941711426,571.0
6.853177070617676,545.0
6.858954906463623,566.0
6.864709138870239,566.0
6.869812250137329,571.0
6.875220060348511,580.0
6.880575180053711,596.0
6.885022163391113,610.0
6.892643928527832,623.0
6.89762806892395,623.0
6.902186155319214,632.0
6.908874988555908,623.0
6.9142351150512695,613.0
6.919626951217651,595.0
6.92470383644104,587.0
6.93189811706543,571.0
6.939443111419678,568.0
6.94788122177124,570.0
6.953642845153809,565.0
6.958546161651611,556.0
6.963926076889038,590.0
6.96896505355835,590.0
6.977401971817017,613.0
6.982964277267456,590.0
6.98885703086853,610.0
6.993940114974976,632.0
6.99886417388916,614.0
7.0056469440460205,602.0
7.011337041854858,616.0
7.01629900932312,626.0
7.021660089492798,625.0
7.026255130767822,628.0
7.032012939453125,627.0
7.036746025085449,626.0
7.04140305519104,630.0
7.04814887046814,631.0
7.0574729442596436,634.0
7.063698053359985,639.0
7.069332838058472,650.0
7.077790260314941,619.0
7.083698034286499,633.0
7.08875298500061,641.0
7.094153165817261,648.0
7.101203203201294,642.0
7.105985879898071,621.0
7.111514091491699,642.0
7.117132902145386,641.0
7.122740983963013,643.0
7.127901077270508,645.0
7.1363911628723145,653.0
7.142502069473267,656.0
7.148643970489502,670.0
7.15656590461731,677.0
7.164952039718628,681.0
7.17253303527832,685.0
7.181317090988159,663.0
7.189611911773682,683.0
7.1981120109558105,676.0
7.205560922622681,669.0
7.212491989135742,636.0
7.216532945632935,646.0
7.223375082015991,613.0
7.22984504699707,627.0
7.234960079193115,602.0
7.241338014602661,620.0
7.247406959533691,622.0
7.252777099609375,619.0
7.261121988296509,620.0
7.266161203384399,603.0
7.273499011993408,619.0
7.279757022857666,623.0
7.284818172454834,621.0
7.29089093208313,617.0
7.297636032104492,623.0
7.303509950637817,631.0
7.308763027191162,640.0
7.314121246337891,642.0
7.3196940422058105,636.0
7.3244709968566895,633.0
7.331727027893066,638.0
7.3395209312438965,628.0
7.347965240478516,624.0
7.353212118148804,618.0
7.357913017272949,620.0
7.365552186965942,614.0
7.373516082763672,605.0
7.382051944732666,603.0
7.389780282974243,611.0
7.394812107086182,609.0
7.398972034454346,608.0
7.4057090282440186,612.0
7.410107135772705,614.0
7.418036222457886,607.0
7.4234089851379395,607.0
7.4288859367370605,598.0
7.433679103851318,628.0
7.439284086227417,622.0
7.4449779987335205,622.0
7.4502198696136475,622.0
7.455790042877197,609.0
7.460983037948608,606.0
7.468792915344238,598.0
7.477540016174316,598.0
7.486021041870117,600.0
7.494188070297241,580.0
7.501399993896484,564.0
7.506816864013672,592.0
7.512159824371338,593.0
7.516966104507446,593.0
7.522346258163452,595.0
7.52778697013855,579.0
7.536077976226807,605.0
7.541247129440308,611.0
7.5486860275268555,622.0
7.557059049606323,587.0
7.564703941345215,612.0
7.57005500793457,610.0
7.575613021850586,608.0
7.581005096435547,611.0
7.585856914520264,613.0
7.5906898975372314,599.0
7.597110986709595,618.0
7.601339101791382,615.0
7.605863094329834,621.0
7.610716104507446,620.0
7.617871046066284,621.0
7.62288498878479,618.0
7.627320051193237,617.0
7.634834051132202,616.0
7.643299102783203,617.0
7.6508331298828125,618.0
7.656430006027222,620.0
7.661811113357544,610.0
7.666720867156982,616.0
7.671419143676758,613.0
7.677700042724609,626.0
7.682893991470337,617.0
7.69006609916687,614.0
7.697724103927612,611.0
7.703135251998901,610.0
7.708919048309326,610.0
7.714064121246338,611.0
7.718899250030518,607.0
7.726129055023193,607.0
7.731487274169922,604.0
7.737004041671753,602.0
7.742058992385864,581.0
7.746666193008423,581.0
7.751523971557617,605.0
7.756554841995239,605.0
7.761357069015503,604.0
7.7668421268463135,612.0
7.7720420360565186,608.0
7.776556015014648,608.0
7.784558057785034,605.0
7.790173053741455,610.0
7.795546054840088,607.0
7.800952911376953,610.0
7.806752920150757,611.0
7.814799070358276,611.0
7.822860956192017,610.0
7.828254222869873,611.0
7.833690166473389,614.0
7.838606119155884,618.0
7.844022035598755,586.0
7.852146148681641,599.0
7.859267950057983,607.0
7.864508152008057,579.0
7.869226932525635,600.0
7.874902009963989,603.0
7.880845069885254,593.0
7.88651704788208,605.0
7.892011880874634,594.0
7.897201061248779,613.0
7.902647018432617,613.0
7.90869402885437,612.0
7.91388726234436,614.0
7.9195780754089355,619.0
7.924469947814941,613.0
7.9329750537872314,624.0
7.9385151863098145,623.0
7.944265842437744,629.0
7.952787160873413,628.0
7.960905075073242,633.0
7.969470262527466,641.0
7.97455096244812,610.0
7.981338977813721,632.0
7.986687183380127,646.0
7.992244243621826,612.0
7.996752023696899,642.0
8.002748012542725,636.0
8.011416912078857,646.0
8.017472982406616,631.0
8.023422241210938,629.0
8.02883505821228,638.0
8.033852100372314,624.0
8.039695978164673,616.0
8.04512906074524,594.0
8.050132989883423,582.0
8.055206060409546,602.0
8.06050705909729,600.0
8.068297147750854,606.0
8.076351165771484,598.0
8.081933975219727,615.0
8.089108943939209,631.0
8.09480595588684,606.0
8.100620031356812,628.0
8.10575819015503,611.0
8.11089301109314,642.0
8.118943214416504,634.0
8.124778270721436,638.0
8.130168914794922,625.0
8.135809898376465,631.0
8.143370866775513,620.0
8.151122093200684,605.0
8.156560182571411,597.0
8.164160966873169,616.0
8.170132160186768,609.0
8.17445707321167,581.0
8.181534051895142,610.0
8.189213037490845,606.0
8.194040060043335,617.0
8.201393127441406,622.0
8.206275939941406,628.0
8.21119499206543,618.0
8.215487241744995,626.0
8.222646951675415,603.0
8.228325128555298,613.0
8.233148097991943,596.0
8.238492012023926,591.0
8.244289875030518,582.0
8.253030061721802,578.0
8.25859808921814,582.0
8.264050006866455,578.0
8.269182205200195,587.0
8.276500225067139,580.0
8.284196138381958,582.0
8.2897629737854,584.0
8.295210123062134,581.0
8.300058126449585,573.0
8.30466914176941,589.0
8.310966968536377,591.0
8.318857192993164,606.0
8.326714038848877,599.0
8.33449411392212,599.0
8.340296030044556,604.0
8.34776496887207,607.0
8.35318899154663,608.0
8.358899116516113,612.0
8.364150047302246,585.0
8.36919903755188,612.0
8.37635612487793,610.0
8.381589889526367,614.0
8.386271238327026,587.0
8.391371965408325,614.0
8.39805817604065,601.0
8.40542984008789,618.0
8.41053295135498,596.0
8.417673826217651,618.0
8.422486066818237,618.0
8.42630910873413,617.0
8.431180000305176,614.0
8.435419082641602,602.0
8.442460060119629,608.0
8.447225093841553,611.0
8.452474117279053,630.0
8.456490278244019,619.0
8.460805177688599,616.0
8.468165159225464,633.0
8.473541021347046,608.0
8.478997945785522,630.0
8.48408317565918,602.0
8.48917007446289,626.0
8.494040966033936,603.0
8.498574018478394,622.0
8.507221937179565,620.0
8.512983083724976,631.0
8.517177104949951,617.0
8.52186894416809,627.0
8.526524066925049,626.0
8.53430700302124,624.0
8.54006314277649,603.0
8.545051097869873,623.0
8.549974918365479,621.0
8.555601119995117,614.0
8.56129002571106,626.0
8.566184043884277,617.0
8.571601152420044,592.0
8.57633090019226,613.0
8.581587076187134,598.0
8.586457014083862,608.0
8.592000007629395,597.0
8.5975661277771,592.0
8.602873086929321,595.0
8.6078040599823,579.0
8.613110065460205,594.0
8.617799043655396,604.0
8.623322010040283,596.0
8.628239154815674,579.0
8.632885932922363,575.0
8.639922142028809,598.0
8.645333051681519,591.0
8.651028871536255,609.0
8.656460046768188,619.0
8.660918951034546,636.0
8.665771007537842,628.0
8.673839092254639,632.0
8.679596900939941,625.0
8.683841943740845,627.0
8.689043045043945,620.0
8.693439960479736,613.0
8.70221209526062,603.0
8.710662126541138,598.0
8.71840500831604,592.0
8.726481199264526,598.0
8.73416805267334,581.0
8.739742040634155,579.0
8.747520923614502,590.0
8.753301858901978,582.0
8.758172035217285,587.0
8.763306140899658,565.0
8.767848014831543,568.0
8.77246618270874,565.0
8.777204275131226,596.0
8.785120964050293,569.0
8.79338526725769,606.0
8.801271915435791,606.0
8.806638956069946,620.0
8.814281940460205,607.0
8.819754123687744,607.0
8.824938297271729,600.0
8.830713033676147,613.0
8.835076093673706,613.0
8.841885089874268,603.0
8.847477912902832,618.0
8.852837085723877,621.0
8.859378099441528,624.0
8.864031076431274,624.0
8.86949896812439,628.0
8.877255201339722,624.0
8.884224891662598,601.0
8.889067888259888,628.0
8.89308214187622,623.0
8.897639036178589,628.0
8.903017044067383,600.0
8.90855598449707,622.0
8.913776159286499,612.0
8.918911218643188,620.0
8.925832033157349,595.0
8.930933952331543,623.0
8.934980154037476,619.0
8.939564943313599,620.0
8.944745063781738,608.0
8.949769258499146,633.0
8.954689025878906,620.0
8.95872712135315,637.0
8.963632106781006,633.0
8.968719005584717,607.0
8.975569009780884,624.0
8.980114221572876,631.0
8.98468804359436,622.0
8.993096113204956,619.0
9.000899076461792,607.0
9.006273984909058,623.0
9.010879278182983,609.0
9.018254041671753,618.0
9.02626919746399,610.0
9.031759977340698,584.0
9.037402153015137,605.0
9.04217529296875,601.0
9.047276973724365,590.0
9.051716089248657,602.0
9.060662984848022,606.0
9.068421125411987,595.0
9.076184034347534,580.0
9.0815908908844,599.0
9.087522983551025,595.0
9.092482089996338,574.0
9.097491025924683,592.0
9.10242509841919,604.0
9.10991907119751,591.0
9.118239879608154,595.0
9.126296043395996,578.0
9.132294178009033,604.0
9.137968063354492,577.0
9.142526149749756,573.0
9.14778995513916,573.0
9.152934074401855,597.0
9.15778923034668,584.0
9.165279865264893,589.0
9.170840978622437,594.0
9.177083015441895,586.0
9.184767246246338,593.0
9.189825057983398,587.0
9.19400691986084,592.0
9.201447010040283,568.0
9.207466125488281,572.0
9.212661027908325,600.0
9.217257261276245,603.0
9.222841024398804,595.0
9.227579116821289,620.0
9.234674215316772,630.0
9.240063905715942,623.0
9.244656085968018,614.0
9.249704122543335,580.0
9.255640029907227,594.0
9.260501861572266,590.0
9.267522096633911,565.0
9.272903203964233,586.0
9.27836298942566,594.0
9.283186197280884,565.0
9.28873324394226,587.0
9.293401956558228,600.0
9.298841953277588,610.0
9.30323600769043,605.0
9.308155059814453,607.0
9.313987016677856,591.0
9.31886601448059,613.0
9.324073076248169,621.0
9.331202030181885,611.0
9.336535930633545,611.0
9.342002153396606,623.0
9.347182989120483,614.0
9.351754903793335,604.0
9.358937978744507,616.0
9.364518165588379,612.0
9.369910955429077,629.0
9.374770164489746,617.0
9.38153600692749,604.0
9.38934326171875,623.0
9.394999027252197,631.0
9.400554180145264,636.0
9.405611991882324,614.0
9.410461187362671,644.0
9.417687892913818,636.0
9.423252820968628,621.0
9.42815613746643,633.0
9.4326491355896,629.0
9.43855094909668,630.0
9.444005012512207,628.0
9.451312065124512,628.0
9.457551956176758,626.0
9.46262001991272,603.0
9.467648029327393,621.0
9.472609996795654,617.0
9.4777090549469,621.0
9.48545503616333,621.0
9.492784976959229,621.0
9.498157978057861,602.0
9.503615140914917,624.0
9.509891033172607,627.0
9.517677068710327,625.0
9.523038148880005,599.0
9.528523921966553,622.0
9.534671068191528,620.0
9.54029893875122,616.0
9.548020839691162,608.0
9.557765007019043,601.0
9.56350827217102,590.0
9.569406032562256,608.0
9.57739520072937,609.0
9.585874080657959,614.0
9.59135913848877,615.0
9.596975088119507,616.0
9.602260112762451,617.0
9.60961103439331,615.0
9.615423917770386,613.0
9.62319803237915,612.0
9.629637002944946,613.0
9.634424924850464,608.0
9.640048027038574,615.0
9.645895004272461,595.0
9.650935888290405,600.0
9.65585708618164,598.0
9.66071105003357,602.0
9.669184923171997,601.0
9.676072120666504,590.0
9.681300163269043,612.0
9.686207056045532,608.0
9.691319942474365,617.0
9.697924137115479,644.0
9.702570915222168,657.0
9.710644960403442,651.0
9.717108964920044,655.0
9.722146987915039,633.0
9.72733998298645,630.0
9.734984159469604,629.0
9.74211597442627,626.0
9.74747109413147,620.0
9.752863883972168,619.0
9.757369995117188,597.0
9.764639854431152,605.0
9.769853115081787,605.0
9.7743980884552,618.0
9.779333114624023,623.0
9.783929109573364,620.0
9.788679122924805,625.0
9.79384708404541,626.0
9.801666975021362,627.0
9.809262990951538,609.0
9.814642190933228,630.0
9.822885990142822,607.0
9.831549167633057,628.0
9.837011098861694,606.0
9.842708110809326,625.0
9.84797215461731,620.0
9.852349042892456,620.0
9.86009693145752,619.0
9.868216037750244,625.0
9.876130104064941,634.0
9.881952047348022,632.0
9.889263153076172,631.0
9.89460015296936,627.0
9.900601148605347,629.0
9.905702114105225,601.0
9.910784006118774,623.0
9.918346881866455,615.0
9.926403045654297,627.0
9.931735038757324,617.0
9.939563035964966,620.0
9.945334911346436,617.0
9.950162172317505,615.0
9.954734086990356,611.0
9.959168910980225,617.0
9.965350151062012,593.0
9.97283387184143,620.0
9.97822093963623,633.0
9.983950138092041,618.0
9.989310264587402,646.0
9.99428391456604,638.0
10.001291036605835,634.0
10.00650691986084,631.0
10.01152515411377,625.0
10.016236066818237,616.0
10.023497819900513,604.0
10.029033184051514,577.0
10.034400939941406,598.0
10.038916110992432,594.0
10.044325113296509,596.0
10.051755905151367,598.0
10.059497117996216,597.0
10.064881086349487,610.0
10.070285081863403,602.0
10.075254917144775,603.0
10.079764127731323,603.0
10.086004972457886,604.0
10.090811014175415,606.0
10.098215103149414,608.0
10.105912923812866,609.0
10.11136507987976,609.0
10.117290258407593,609.0
10.12248420715332,614.0
10.127679824829102,622.0
10.132233142852783,618.0
10.136554956436157,628.0
10.142308950424194,609.0
10.147698163986206,623.0
10.15256118774414,626.0
10.157134056091309,619.0
10.164112091064453,609.0
10.169597148895264,610.0
10.174389839172363,619.0
10.181394100189209,625.0
10.186866044998169,621.0
10.192713975906372,625.0
10.197669982910156,614.0
10.202344179153442,613.0
10.207194089889526,616.0
10.214790105819702,622.0
10.22013807296753,620.0
10.224771976470947,602.0
10.231744050979614,626.0
10.23718810081482,626.0
10.242714166641235,636.0
10.247446060180664,642.0
10.252815008163452,630.0
10.257503271102905,641.0
10.26252007484436,642.0
10.267242908477783,641.0
10.272735834121704,616.0
10.277653932571411,632.0
10.284923076629639,631.0
10.291803121566772,603.0
10.297236919403076,606.0
10.302751064300537,610.0
10.309689998626709,614.0
10.314234018325806,602.0
10.318186283111572,608.0
10.325371026992798,604.0
10.330389022827148,625.0
10.334835052490234,622.0
10.342498064041138,603.0
10.348439931869507,628.0
10.352962017059326,607.0
10.35891604423523,624.0
10.363432168960571,604.0
10.368309020996094,616.0
10.37578797340393,587.0
10.3804771900177,602.0
10.385076999664307,607.0
10.392662048339844,603.0
10.398102045059204,603.0
10.403588056564331,606.0
10.40826416015625,612.0
10.413902997970581,614.0
10.4188551902771,613.0
10.4237539768219,612.0
10.428513050079346,613.0
10.433336019515991,616.0
10.440150022506714,590.0
10.447652101516724,618.0
10.452510118484497,621.0
10.457415103912354,602.0
10.464618921279907,635.0
10.470055103302002,634.0
10.475575923919678,628.0
10.480062246322632,611.0
10.486089944839478,632.0
10.490943193435669,635.0
10.497904062271118,598.0
10.503041982650757,611.0
10.507725954055786,611.0
10.514856100082397,612.0
10.520316123962402,599.0
10.526077032089233,594.0
10.530534029006958,573.0
10.535964012145996,605.0
10.542877197265625,585.0
10.547585010528564,610.0
10.552335977554321,597.0
10.560020208358765,626.0
10.567214965820312,629.0
10.571573972702026,636.0
10.576110124588013,634.0
10.580471992492676,615.0
10.586060047149658,632.0
10.590785026550293,638.0
10.597640037536621,624.0
10.603270053863525,623.0
10.608005046844482,624.0
10.615257024765015,623.0
10.622683048248291,620.0
10.62725019454956,608.0
10.634090900421143,628.0
10.63868522644043,632.0
10.643330097198486,617.0
10.650795936584473,639.0
10.656288862228394,650.0
10.661790132522583,652.0
10.666646957397461,655.0
10.671112060546875,655.0
10.677364826202393,650.0
10.684225082397461,635.0
10.688905954360962,632.0
10.69337010383606,633.0
10.700852155685425,616.0
10.706501007080078,610.0
10.711876153945923,609.0
10.71670389175415,610.0
10.721670150756836,611.0
10.726078033447266,620.0
10.731450080871582,614.0
10.73685598373413,629.0
10.741676092147827,622.0
10.746187925338745,600.0
10.752436876296997,629.0
10.759358167648315,621.0
10.763881206512451,607.0
10.767797946929932,619.0
10.771844148635864,618.0
10.776657104492188,621.0
10.783658981323242,622.0
10.79011607170105,630.0
10.794676065444946,620.0
10.79931902885437,621.0
10.80597710609436,624.0
10.81141209602356,626.0
10.817255020141602,625.0
10.821895122528076,605.0
10.826755046844482,624.0
10.834362983703613,628.0
10.839359283447266,609.0
10.843343019485474,607.0
10.850819110870361,622.0
10.855568170547485,601.0
10.85998821258545,612.0
10.867545127868652,604.0
10.872937202453613,606.0
10.87833309173584,581.0
10.883171081542969,608.0
10.889930963516235,603.0
10.89512014389038,607.0
10.899515151977539,615.0
10.906099081039429,584.0
10.911072015762329,606.0
10.916028022766113,594.0
10.923171043395996,603.0
10.92861294746399,608.0
10.934405088424683,615.0
10.93891716003418,612.0
10.943977117538452,589.0
10.950729131698608,602.0
10.955688238143921,632.0
10.95998501777649,628.0
10.96726107597351,637.0
10.972494125366211,644.0
10.977030992507935,640.0
10.983784198760986,648.0
10.9892578125,615.0
10.994599103927612,637.0
11.00149917602539,638.0
11.008996963500977,611.0
11.014601230621338,632.0
11.019994020462036,632.0
11.024862051010132,630.0
11.031445026397705,635.0
11.036216974258423,639.0
11.040205955505371,619.0
11.044572114944458,630.0
11.050575017929077,633.0
11.05563998222351,642.0
11.060816049575806,637.0
11.06778597831726,637.0
11.072252035140991,620.0
11.076340198516846,637.0
11.080579042434692,612.0
11.085738897323608,634.0
11.093376874923706,612.0
11.100775003433228,631.0
11.106459140777588,616.0
11.111678123474121,640.0
11.116552114486694,625.0
11.121494054794312,614.0
11.127687215805054,638.0
11.134818077087402,642.0
11.139373064041138,632.0
11.143730163574219,640.0
11.15132999420166,643.0
11.156745195388794,639.0
11.162121057510376,653.0
11.166976928710938,639.0
11.172332048416138,639.0
11.177284002304077,632.0
11.184321880340576,619.0
11.188946008682251,627.0
11.194015264511108,619.0
11.20139217376709,617.0
11.207031011581421,620.0
11.214953184127808,627.0
11.22248101234436,615.0
11.227936029434204,611.0
11.233922004699707,616.0
11.23832106590271,617.0
11.242763996124268,602.0
11.248221158981323,614.0
11.255999088287354,604.0
11.261218070983887,614.0
11.268127202987671,616.0
11.27547001838684,622.0
11.282004833221436,619.0
11.289093017578125,619.0
11.294841051101685,615.0
11.299781084060669,613.0
11.30649995803833,612.0
11.31155014038086,612.0
11.316708087921143,611.0
11.321331024169922,604.0
11.32550597190857,604.0
11.330054998397827,607.0
11.33492398262024,601.0
11.342396020889282,607.0
11.34672498703003,609.0
11.350994110107422,590.0
11.355201959609985,604.0
11.360044002532959,604.0
11.367338180541992,600.0
11.372121095657349,594.0
11.376555919647217,602.0
11.384214878082275,604.0
11.389896154403687,596.0
11.39527702331543,605.0
11.399930000305176,601.0
11.406205177307129,602.0
11.410944938659668,614.0
11.417946100234985,619.0
11.422528982162476,609.0
11.426462173461914,637.0
11.430801153182983,645.0
11.43564510345459,643.0
11.440483093261719,649.0
11.447566032409668,644.0
11.452951908111572,638.0
11.457740068435669,640.0
11.464701175689697,622.0
11.47022294998169,626.0
11.47606897354126,616.0
11.480736017227173,611.0
11.48562502861023,613.0
11.490471124649048,616.0
11.497373104095459,618.0
11.502758026123047,622.0
11.507889032363892,631.0
11.515285015106201,620.0
11.522770166397095,631.0
11.527503967285156,639.0
11.534677028656006,617.0
11.540089130401611,641.0
11.544715881347656,643.0
11.549837112426758,639.0
11.554960012435913,643.0
11.559030055999756,646.0
11.563743829727173,628.0
11.568301916122437,641.0
11.57591700553894,646.0
11.581436157226562,625.0
11.586984157562256,644.0
11.591871976852417,636.0
11.596857070922852,622.0
11.601689100265503,632.0
11.609410047531128,612.0
11.614097118377686,633.0
11.617961168289185,633.0
11.62230896949768,628.0
11.62794804573059,603.0
11.63358211517334,626.0
11.638113021850586,624.0
11.64374327659607,616.0
11.651198148727417,607.0
11.656819105148315,631.0
11.662245988845825,640.0
11.667671918869019,605.0
11.673002243041992,618.0
11.677754163742065,622.0
11.68485713005066,621.0
11.692360162734985,619.0
11.697997093200684,632.0
11.703355073928833,595.0
11.708157062530518,620.0
11.71321415901184,617.0
11.717725038528442,596.0
11.72312307357788,627.0
11.727933168411255,622.0
11.733914136886597,620.0
11.738728046417236,623.0
11.743820905685425,597.0
11.75243616104126,595.0
11.759536981582642,606.0
11.764096975326538,608.0
11.769114971160889,604.0
11.773622035980225,586.0
11.780611991882324,583.0
11.786116123199463,612.0
11.791146993637085,604.0
11.798069953918457,589.0
11.803452014923096,617.0
11.8093900680542,628.0
11.814335823059082,627.0
11.819252252578735,635.0
11.824072122573853,630.0
11.831511974334717,623.0
11.836669206619263,616.0
11.840857028961182,604.0
11.844940900802612,611.0
11.849709033966064,614.0
11.856066942214966,613.0
11.86060094833374,600.0
11.869042158126831,634.0
11.874758005142212,635.0
11.879991054534912,618.0
11.884413242340088,630.0
11.889865159988403,629.0
11.894246101379395,623.0
11.901301860809326,602.0
11.906511068344116,605.0
11.911230087280273,593.0
11.915735960006714,597.0
11.922831058502197,604.0
11.928447961807251,581.0
11.933180093765259,597.0
11.940247058868408,601.0
11.945708990097046,612.0
11.951725959777832,622.0
11.958884000778198,631.0
11.963581085205078,637.0
11.968732118606567,643.0
11.97583293914795,638.0
11.981307983398438,647.0
11.986717224121094,647.0
11.992012977600098,656.0
11.996671199798584,641.0
12.001609086990356,648.0
12.009311199188232,632.0
12.013997077941895,640.0
12.018972158432007,625.0
12.026448011398315,618.0
12.031862020492554,637.0
12.037255048751831,643.0
12.042115926742554,624.0
12.047574043273926,653.0
12.052769899368286,656.0
12.059920072555542,641.0
12.067135095596313,636.0
12.072530031204224,628.0
12.077917098999023,631.0
12.082699060440063,599.0
12.089649200439453,624.0
12.09464693069458,600.0
12.099339962005615,623.0
12.106792211532593,621.0
12.114521026611328,618.0
12.119999885559082,604.0
12.12558889389038,603.0
12.12999701499939,617.0
12.13611626625061,613.0
12.141047954559326,634.0
12.147949934005737,641.0
12.152966022491455,635.0
12.157230138778687,636.0
12.161201000213623,613.0
12.16794204711914,626.0
12.17250394821167,632.0
12.177150249481201,640.0
12.184262037277222,633.0
12.189496994018555,632.0
12.193902015686035,634.0
12.200550079345703,631.0
12.20585584640503,630.0
12.211279153823853,608.0
12.216031074523926,636.0
12.22299313545227,633.0
12.227524995803833,645.0
12.234631061553955,634.0
12.23920202255249,633.0
12.244200229644775,634.0
12.248441934585571,636.0
12.253468036651611,618.0
12.257646083831787,633.0
12.26418399810791,646.0
12.26927399635315,623.0
12.275775909423828,637.0
12.2812180519104,617.0
12.286616086959839,641.0
12.291423082351685,638.0
12.298431158065796,632.0
12.3056480884552,638.0
12.310745000839233,639.0
12.317600965499878,612.0
12.323103189468384,638.0
12.328580141067505,633.0
12.333347082138062,645.0
12.338651180267334,637.0
12.343841075897217,635.0
12.351283073425293,636.0
12.355740070343018,614.0
12.359632015228271,634.0
12.364037036895752,633.0
12.369471073150635,612.0
12.373708963394165,633.0
12.380568027496338,640.0
12.385427236557007,614.0
12.392069101333618,613.0
12.397042036056519,624.0
12.40133023262024,642.0
12.406208038330078,649.0
12.410798072814941,646.0
12.41810393333435,622.0
12.4235360622406,642.0
12.4289870262146,633.0
12.433817148208618,638.0
12.439162969589233,642.0
12.444071054458618,634.0
12.45095705986023,607.0
12.455334186553955,629.0
12.459347248077393,622.0
12.463879108428955,619.0
12.468990087509155,618.0
12.47611403465271,618.0
12.480823040008545,624.0
12.485090970993042,613.0
12.492452144622803,618.0
12.497484922409058,619.0
12.501614093780518,622.0
12.506596088409424,623.0
12.511446952819824,600.0
12.5157470703125,615.0
12.52294111251831,619.0
12.528100967407227,615.0
12.533926010131836,612.0
12.538591861724854,617.0
12.544374942779541,605.0
12.549200057983398,580.0
12.555783033370972,612.0
12.560837030410767,613.0
12.567614078521729,608.0
12.572646141052246,577.0
12.57722520828247,598.0
12.584874153137207,587.0
12.592588901519775,613.0
12.597533226013184,617.0
12.60215425491333,619.0
12.608858108520508,618.0
12.613930940628052,616.0
12.617986917495728,615.0
12.62297511100769,608.0
12.627945184707642,605.0
12.635648012161255,608.0
12.64167308807373,605.0
12.646460056304932,624.0
12.651058197021484,620.0
12.656436920166016,620.0
12.661226272583008,603.0
12.667229175567627,619.0
12.671561241149902,628.0
12.67608904838562,608.0
12.681661128997803,594.0
12.686403036117554,620.0
12.691242218017578,591.0
12.696616172790527,605.0
12.702688932418823,608.0
12.707823038101196,609.0
12.71566104888916,621.0
12.721606016159058,617.0
12.727138042449951,627.0
12.734369993209839,626.0
12.739387035369873,630.0
12.74336290359497,632.0
12.75171184539795,619.0
12.75958800315857,627.0
12.764405965805054,605.0
12.769492149353027,628.0
12.776560068130493,625.0
12.784557104110718,632.0
12.78968596458435,604.0
12.795180082321167,601.0
12.800299882888794,611.0
12.80545711517334,610.0
12.81065320968628,608.0
12.818114042282104,611.0
12.823645114898682,616.0
12.831161975860596,623.0
12.83828592300415,617.0
12.842902898788452,600.0
12.847530126571655,633.0
12.852015972137451,623.0
12.859529256820679,615.0
12.864123106002808,627.0
12.868242025375366,622.0
12.873156070709229,628.0
12.877440929412842,638.0
12.884941101074219,610.0
12.889611005783081,601.0
12.894500017166138,602.0
12.898588180541992,619.0
12.906393051147461,606.0
12.91195011138916,595.0
12.916640043258667,615.0
12.923464059829712,614.0
12.931101083755493,616.0
12.940080165863037,608.0
12.94805121421814,606.0
12.956614017486572,608.0
12.96275806427002,607.0
12.967246055603027,605.0
12.972691059112549,597.0
12.97778606414795,609.0
12.986104011535645,610.0
12.991334199905396,616.0
12.998260259628296,621.0
13.00414514541626,625.0
13.008915185928345,626.0
13.014469146728516,624.0
13.01995301246643,620.0
13.025243997573853,615.0
13.032584190368652,586.0
13.03852891921997,611.0
13.044199228286743,611.0
13.04909896850586,615.0
13.054548263549805,607.0
13.059393882751465,600.0
13.064352989196777,614.0
13.06974196434021,607.0
13.075337886810303,619.0
13.080672979354858,615.0
13.087776899337769,620.0
13.095487833023071,602.0
13.101092100143433,635.0
13.106356859207153,619.0
13.112159967422485,636.0
13.117256164550781,631.0
13.121998071670532,630.0
13.128453016281128,625.0
13.133655071258545,628.0
13.138658046722412,625.0
13.14534306526184,628.0
13.150378942489624,627.0
13.155647993087769,627.0
13.162099123001099,628.0
13.167071104049683,636.0
13.171785116195679,609.0
13.176752090454102,631.0
13.18241810798645,628.0
13.189538955688477,623.0
13.195144176483154,630.0
13.199706077575684,632.0
13.204915046691895,630.0
13.209182262420654,623.0
13.214140176773071,631.0
13.219885110855103,640.0
13.224788188934326,622.0
13.230247020721436,633.0
13.235836029052734,649.0
13.241512060165405,624.0
13.248103141784668,617.0
13.252549171447754,629.0
13.264101028442383,645.0
13.27038311958313,641.0
13.27514100074768,612.0
13.280240058898926,636.0
13.28559923171997,644.0
13.290785074234009,614.0
13.2987539768219,630.0
13.304930925369263,631.0
13.31075119972229,636.0
13.315733909606934,632.0
13.324110984802246,633.0
13.330731868743896,632.0
13.336128950119019,623.0
13.343973159790039,625.0
13.349399089813232,618.0
13.354442834854126,617.0
13.359076023101807,619.0
13.363255023956299,630.0
13.368091106414795,595.0
13.373013019561768,627.0
13.378117084503174,621.0
13.38255000114441,618.0
13.389011144638062,619.0
13.39392614364624,625.0
13.401637077331543,618.0
13.409513235092163,619.0
13.41438102722168,601.0
13.419897079467773,615.0
13.424996137619019,615.0
13.429847955703735,609.0
13.434234142303467,599.0
13.438813209533691,614.0
13.442599058151245,594.0
13.447110176086426,623.0
13.452691078186035,619.0
13.457542181015015,626.0
13.464482069015503,626.0
13.469346046447754,617.0
13.477328062057495,619.0
13.484658002853394,610.0
13.489666938781738,618.0
13.494359970092773,623.0
13.501626014709473,619.0
13.509263038635254,622.0
13.514931201934814,617.0
13.522565126419067,621.0
13.527956247329712,626.0
13.532254219055176,627.0
13.543215036392212,622.0
13.551054954528809,629.0
13.555661916732788,632.0
13.559977054595947,633.0
13.564759969711304,640.0
13.57000207901001,646.0
13.575348854064941,646.0
13.580297946929932,643.0
13.584500074386597,640.0
13.589050054550171,641.0
13.594523191452026,631.0
13.599049091339111,623.0
