time,emg
0.012845993041992188,672.0
0.024430036544799805,714.0
0.029482126235961914,736.0
0.03355216979980469,732.0
0.03862810134887695,747.0
0.04222822189331055,732.0
0.04839491844177246,692.0
0.054171085357666016,682.0
0.05849003791809082,649.0
0.062188148498535156,642.0
0.06612229347229004,630.0
0.07161426544189453,597.0
0.07565712928771973,625.0
0.08112502098083496,630.0
0.08530211448669434,634.0
0.09419512748718262,647.0
0.09935832023620605,651.0
0.10616707801818848,662.0
0.11134099960327148,655.0
0.11535406112670898,647.0
0.11930012702941895,660.0
0.12377309799194336,659.0
0.12806010246276855,660.0
0.13273906707763672,669.0
0.13930320739746094,680.0
0.14481616020202637,673.0
0.14934396743774414,679.0
0.15403509140014648,674.0
0.1578531265258789,670.0
0.16314220428466797,663.0
0.16704916954040527,670.0
0.1716022491455078,658.0
0.17553019523620605,677.0
0.1796891689300537,682.0
0.1844170093536377,665.0
0.18900704383850098,687.0
0.19376826286315918,694.0
0.20087432861328125,695.0
0.2056732177734375,699.0
0.21071815490722656,701.0
0.21524500846862793,696.0
0.22230005264282227,693.0
0.23079419136047363,676.0
0.23602819442749023,695.0
0.24044513702392578,675.0
0.24770617485046387,686.0
0.2557811737060547,655.0
0.2618710994720459,655.0
0.2671799659729004,674.0
0.271942138671875,671.0
0.2773013114929199,662.0
0.2824580669403076,660.0
0.28954005241394043,683.0
0.2950601577758789,683.0
0.30070018768310547,696.0
0.30596494674682617,686.0
0.3115730285644531,687.0
0.31659793853759766,666.0
0.322437047958374,690.0
0.3275630474090576,660.0
0.3349790573120117,684.0
0.34264612197875977,661.0
0.3479311466217041,684.0
0.3525969982147217,684.0
0.3605082035064697,659.0
0.3677520751953125,681.0
0.3735651969909668,667.0
0.38149118423461914,683.0
0.3868551254272461,681.0
0.39274120330810547,687.0
0.3989701271057129,682.0
0.4068160057067871,686.0
0.4149150848388672,676.0
0.42382216453552246,682.0
0.43175697326660156,679.0
0.4381701946258545,683.0
0.4432859420776367,686.0
0.4491000175476074,688.0
0.4569692611694336,693.0
0.46339917182922363,697.0
0.4681711196899414,675.0
0.4732542037963867,695.0
0.4815671443939209,690.0
0.4906132221221924,680.0
0.49646615982055664,693.0
0.5009629726409912,673.0
0.5060279369354248,675.0
0.5110831260681152,677.0
0.516185998916626,671.0
0.5231790542602539,674.0
0.5289299488067627,671.0
0.5341031551361084,679.0
0.5387191772460938,679.0
0.5440969467163086,672.0
0.553063154220581,678.0
0.5585062503814697,675.0
0.5640020370483398,657.0
0.5698661804199219,677.0
0.5748112201690674,666.0
0.5816650390625,678.0
0.5900342464447021,685.0
0.594851016998291,687.0
0.5997111797332764,694.0
0.6072659492492676,668.0
0.6133191585540771,695.0
0.6180391311645508,672.0
0.6228783130645752,691.0
0.628446102142334,694.0
0.6330862045288086,694.0
0.6404571533203125,688.0
0.6485822200775146,691.0
0.6536428928375244,692.0
0.658419132232666,696.0
0.6656889915466309,694.0
0.6744801998138428,698.0
0.6823160648345947,679.0
0.6910111904144287,695.0
0.6994001865386963,672.0
0.7047700881958008,689.0
0.7098801136016846,657.0
0.7152581214904785,681.0
0.7207491397857666,673.0
0.7264430522918701,680.0
0.7325632572174072,681.0
0.737483024597168,680.0
0.7433509826660156,685.0
0.7493801116943359,685.0
0.7538070678710938,684.0
0.7631421089172363,685.0
0.7687630653381348,668.0
0.7733840942382812,695.0
0.7790131568908691,695.0
0.7839951515197754,701.0
0.789635181427002,703.0
0.7937090396881104,688.0
0.799079179763794,703.0
0.8034842014312744,700.0
0.8115501403808594,692.0
0.8207371234893799,692.0
0.8255181312561035,685.0
0.8327789306640625,681.0
0.8406741619110107,670.0
0.8474600315093994,681.0
0.8518922328948975,675.0
0.8577172756195068,678.0
0.8627262115478516,648.0
0.8681051731109619,655.0
0.8732190132141113,674.0
0.8782792091369629,662.0
0.8885831832885742,674.0
0.893125057220459,668.0
0.89742112159729,669.0
0.9013781547546387,675.0
0.9063222408294678,672.0
0.910642147064209,669.0
0.9160470962524414,670.0
0.9206042289733887,658.0
0.9251370429992676,678.0
0.9322443008422852,668.0
0.9409599304199219,670.0
0.9499301910400391,649.0
0.958245038986206,664.0
0.9665250778198242,670.0
0.9750509262084961,672.0
0.9813711643218994,668.0
0.9859011173248291,661.0
0.9922502040863037,642.0
0.9996111392974854,656.0
1.0075702667236328,655.0
1.0129551887512207,666.0
1.0179541110992432,664.0
1.0233042240142822,669.0
1.0289552211761475,663.0
1.0342011451721191,664.0
1.0418701171875,657.0
1.0487840175628662,657.0
1.053516149520874,634.0
1.0621390342712402,650.0
1.0677239894866943,658.0
1.0753891468048096,652.0
1.0819282531738281,657.0
1.086930274963379,656.0
1.0952649116516113,659.0
1.103614091873169,666.0
1.1109542846679688,656.0
1.1157870292663574,662.0
1.1201372146606445,644.0
1.1286041736602783,642.0
1.1331093311309814,676.0
1.1380269527435303,686.0
1.1426453590393066,697.0
1.1506280899047852,697.0
1.1586401462554932,691.0
1.1649510860443115,690.0
1.1694340705871582,676.0
1.1747691631317139,639.0
1.182431936264038,636.0
1.1876161098480225,634.0
1.191925287246704,636.0
1.1959280967712402,629.0
1.2004220485687256,637.0
1.2074480056762695,647.0
1.213172197341919,650.0
1.217604160308838,656.0
1.224639892578125,654.0
1.2314441204071045,672.0
1.2371282577514648,668.0
1.2450730800628662,675.0
1.252676010131836,658.0
1.2582662105560303,685.0
1.263153076171875,687.0
1.2685213088989258,697.0
1.2733240127563477,692.0
1.279000997543335,675.0
1.2841682434082031,664.0
1.2921500205993652,680.0
1.2980022430419922,674.0
1.3025591373443604,670.0
1.3072881698608398,657.0
1.3120412826538086,653.0
1.3197741508483887,648.0
1.3254749774932861,649.0
1.333186149597168,646.0
1.3414161205291748,636.0
1.3493952751159668,647.0
1.3548681735992432,646.0
1.3607861995697021,647.0
1.3653371334075928,652.0
1.3698391914367676,656.0
1.3744990825653076,658.0
1.379514217376709,641.0
1.3874740600585938,661.0
1.3950510025024414,666.0
1.4029972553253174,666.0
1.4073610305786133,656.0
1.4115979671478271,693.0
1.4167201519012451,709.0
1.424834966659546,715.0
1.433440923690796,715.0
1.4419572353363037,676.0
1.450141191482544,666.0
1.4587581157684326,673.0
1.46659517288208,631.0
1.4720101356506348,650.0
1.4778249263763428,648.0
1.4835922718048096,638.0
1.491626262664795,640.0
1.496661901473999,646.0
1.5011072158813477,645.0
1.5053541660308838,651.0
1.5104780197143555,661.0
1.5152339935302734,669.0
1.5202381610870361,680.0
1.5260581970214844,657.0
1.5321481227874756,684.0
1.5369641780853271,687.0
1.5451691150665283,690.0
1.5516071319580078,695.0
1.557258129119873,687.0
1.5625660419464111,689.0
1.5715019702911377,665.0
1.5775222778320312,687.0
1.5822250843048096,655.0
1.5868251323699951,677.0
1.5929272174835205,674.0
1.600006103515625,680.0
1.604870080947876,677.0
1.6092791557312012,671.0
1.6166691780090332,677.0
1.622077226638794,681.0
1.6269922256469727,677.0
1.634512186050415,666.0
1.642949104309082,668.0
1.6511471271514893,658.0
1.659006118774414,659.0
1.6651041507720947,660.0
1.670186996459961,656.0
1.675274133682251,655.0
1.6802113056182861,647.0
1.685858964920044,676.0
1.6909003257751465,664.0
1.694849967956543,687.0
1.6990211009979248,681.0
1.704129934310913,658.0
1.712015151977539,685.0
1.7168381214141846,668.0
1.7223031520843506,702.0
1.72737717628479,710.0
1.733039140701294,718.0
1.738692045211792,715.0
1.744145154953003,686.0
1.749556303024292,696.0
1.754993200302124,668.0
1.7630350589752197,673.0
1.7707831859588623,660.0
1.7785401344299316,621.0
1.7838702201843262,642.0
1.7892379760742188,636.0
1.7940499782562256,632.0
1.800929069519043,607.0
1.8057169914245605,610.0
1.81044602394104,639.0
1.8173611164093018,620.0
1.8263921737670898,648.0
1.8325550556182861,648.0
1.8380331993103027,652.0
1.8466260433197021,648.0
1.8513891696929932,656.0
1.85896897315979,661.0
1.8667900562286377,656.0
1.8721821308135986,682.0
1.880213975906372,677.0
1.8884961605072021,700.0
1.8932452201843262,692.0
1.900231122970581,689.0
1.9056859016418457,685.0
1.9098122119903564,671.0
1.9139480590820312,665.0
1.918687343597412,649.0
1.9258131980895996,621.0
1.9311861991882324,641.0
1.9368691444396973,632.0
1.9417941570281982,616.0
1.9471561908721924,643.0
1.9558391571044922,630.0
1.961303949356079,644.0
1.9668340682983398,643.0
1.9716441631317139,632.0
1.9803030490875244,648.0
1.988685131072998,629.0
1.9929702281951904,643.0
1.9974009990692139,643.0
2.004526138305664,625.0
2.012559175491333,665.0
2.0174813270568848,666.0
2.022308111190796,705.0
2.0307061672210693,719.0
2.0362040996551514,701.0
2.041642189025879,715.0
2.0461511611938477,687.0
2.054208993911743,681.0
2.05973219871521,661.0
2.0643861293792725,652.0
2.069632053375244,649.0
2.07503604888916,628.0
2.080454111099243,661.0
2.085685968399048,656.0
2.093257188796997,664.0
2.1007611751556396,672.0
2.105729103088379,666.0
2.1128759384155273,664.0
2.1173741817474365,669.0
2.1223201751708984,661.0
2.130249261856079,684.0
2.137817144393921,673.0
2.145848035812378,663.0
2.1515231132507324,663.0
2.1564581394195557,680.0
2.1618432998657227,675.0
2.16706919670105,680.0
2.1725800037384033,677.0
2.180849075317383,679.0
2.1856191158294678,673.0
2.1927380561828613,674.0
2.1983883380889893,681.0
2.2034590244293213,669.0
2.208343029022217,681.0
2.2141051292419434,673.0
2.219062089920044,681.0
2.226444959640503,682.0
2.234387159347534,683.0
2.239778995513916,686.0
2.244453191757202,686.0
2.251384973526001,673.0
2.256657123565674,697.0
2.261747121810913,700.0
2.2670340538024902,704.0
2.2728822231292725,679.0
2.278093099594116,702.0
2.2836930751800537,679.0
2.2887001037597656,695.0
2.2957911491394043,686.0
2.3006582260131836,683.0
2.3062210083007812,675.0
2.311147928237915,675.0
2.3166682720184326,670.0
2.321465015411377,674.0
2.3260951042175293,673.0
2.3307461738586426,668.0
2.339423179626465,670.0
2.3443100452423096,668.0
2.3510682582855225,667.0
2.3562350273132324,662.0
2.3641340732574463,656.0
2.369107246398926,678.0
2.3763511180877686,678.0
2.381746292114258,681.0
2.3872931003570557,679.0
2.392625093460083,706.0
2.397589921951294,705.0
2.4051871299743652,677.0
2.41316819190979,686.0
2.4185001850128174,695.0
2.426187038421631,690.0
2.432314157485962,674.0
2.437469244003296,688.0
2.4430079460144043,688.0
2.4479892253875732,686.0
2.452625036239624,694.0
2.4600090980529785,694.0
2.467921257019043,689.0
2.473311185836792,689.0
2.47825026512146,697.0
2.485368013381958,697.0
2.4930570125579834,696.0
2.4978842735290527,702.0
2.5020809173583984,693.0
2.5098421573638916,675.0
2.515409231185913,697.0
2.5205612182617188,679.0
2.525224208831787,692.0
2.530907154083252,665.0
2.538722038269043,693.0
2.5468389987945557,688.0
2.552011013031006,695.0
2.556823968887329,695.0
2.5621249675750732,702.0
2.567189931869507,704.0
2.572192907333374,687.0
2.5799190998077393,705.0
2.5847651958465576,703.0
2.5895321369171143,699.0
2.59414005279541,702.0
2.598194122314453,700.0
2.60558819770813,700.0
2.6114320755004883,705.0
2.6174581050872803,691.0
2.6226720809936523,704.0
2.630216121673584,710.0
2.6353671550750732,722.0
2.639979124069214,706.0
2.647946357727051,699.0
2.652714967727661,695.0
2.6602060794830322,677.0
2.667983055114746,686.0
2.673391103744507,673.0
2.6784160137176514,647.0
2.6851630210876465,665.0
2.6903300285339355,638.0
2.6950321197509766,665.0
2.7019240856170654,651.0
2.709787130355835,665.0
2.715862989425659,673.0
2.721034288406372,679.0
2.726175308227539,671.0
2.7310872077941895,675.0
2.7388970851898193,697.0
2.7469112873077393,693.0
2.7523350715637207,664.0
2.7574729919433594,685.0
2.7625560760498047,652.0
2.768127202987671,648.0
2.7731282711029053,633.0
2.7816171646118164,602.0
2.786330223083496,606.0
2.7937121391296387,611.0
2.798996925354004,637.0
2.803140163421631,651.0
2.810123920440674,650.0
2.815892219543457,663.0
2.8210012912750244,678.0
2.826287031173706,669.0
2.8317911624908447,647.0
2.8369550704956055,662.0
2.8439981937408447,642.0
2.851976156234741,683.0
2.857990026473999,700.0
2.863363027572632,697.0
2.86834716796875,731.0
2.873263120651245,731.0
2.8814990520477295,720.0
2.8898770809173584,703.0
2.8967981338500977,679.0
2.901156187057495,650.0
2.9051361083984375,637.0
2.9094772338867188,630.0
2.9138412475585938,631.0
2.91878604888916,610.0
2.924139976501465,642.0
2.928849220275879,648.0
2.9345781803131104,659.0
2.9392311573028564,663.0
2.9468400478363037,677.0
2.9519941806793213,673.0
2.9566261768341064,654.0
2.963752269744873,685.0
2.968575954437256,671.0
2.9739770889282227,687.0
2.97904109954834,663.0
2.984251022338867,691.0
2.9888710975646973,691.0
2.9942471981048584,692.0
2.9994680881500244,691.0
3.00459623336792,699.0
3.0116500854492188,696.0
3.017543077468872,690.0
3.0224270820617676,700.0
3.0280539989471436,676.0
3.0351452827453613,710.0
3.040581226348877,705.0
3.048464059829712,712.0
3.056051254272461,706.0
3.061218023300171,710.0
3.069045305252075,707.0
3.0746421813964844,707.0
3.080010175704956,674.0
3.085031270980835,704.0
3.0905110836029053,701.0
3.097694158554077,673.0
3.1030821800231934,692.0
3.1106972694396973,687.0
3.1163198947906494,691.0
3.121127128601074,688.0
3.1283621788024902,676.0
3.135867118835449,690.0
3.143975257873535,692.0
3.1495840549468994,690.0
3.154282331466675,679.0
3.159346103668213,689.0
3.1638782024383545,684.0
3.169023275375366,658.0
3.173898935317993,677.0
3.178786039352417,661.0
3.185784101486206,668.0
3.193810224533081,682.0
3.1986610889434814,682.0
3.2036120891571045,665.0
3.2109901905059814,679.0
3.219348907470703,683.0
3.22723126411438,680.0
3.232945203781128,680.0
3.237903118133545,684.0
3.2452142238616943,677.0
3.2516160011291504,677.0
3.2572970390319824,682.0
3.2655012607574463,678.0
3.2729570865631104,679.0
3.278233051300049,652.0
3.283190965652466,682.0
3.2887980937957764,662.0
3.2936999797821045,672.0
3.297617197036743,676.0
3.301859140396118,654.0
3.306455135345459,677.0
3.313375949859619,680.0
3.3190860748291016,679.0
3.323970079421997,682.0
3.33113431930542,661.0
3.336658239364624,681.0
3.341525077819824,683.0
3.3472743034362793,666.0
3.3529253005981445,682.0
3.3608951568603516,655.0
3.369112014770508,685.0
3.3745310306549072,689.0
3.3817830085754395,675.0
3.3906190395355225,690.0
3.397752046585083,685.0
3.4025120735168457,688.0
3.4067671298980713,685.0
3.4136922359466553,687.0
3.4186301231384277,684.0
3.4232449531555176,690.0
3.428422212600708,666.0
3.4330060482025146,678.0
3.437782049179077,678.0
3.444632053375244,678.0
3.4528372287750244,682.0
3.4584341049194336,660.0
3.462634325027466,690.0
3.4695420265197754,692.0
3.474539041519165,691.0
3.479074001312256,665.0
3.4830410480499268,687.0
3.4884872436523438,691.0
3.493401050567627,676.0
3.497986078262329,691.0
3.5023951530456543,686.0
3.507606029510498,661.0
3.5151941776275635,683.0
3.5226662158966064,671.0
3.528189182281494,670.0
3.5326099395751953,657.0
3.5410401821136475,652.0
3.5465052127838135,659.0
3.5518062114715576,664.0
3.5567243099212646,665.0
3.561925172805786,671.0
3.566948175430298,666.0
3.572427988052368,667.0
3.5779271125793457,670.0
3.5833520889282227,676.0
3.588736057281494,691.0
3.593698024749756,711.0
3.5986952781677246,722.0
3.6066689491271973,706.0
3.612866163253784,726.0
3.6198692321777344,700.0
3.628122091293335,696.0
3.633352279663086,665.0
3.6377739906311035,668.0
3.6450111865997314,660.0
3.650731086730957,648.0
3.6549601554870605,620.0
3.661984920501709,649.0
3.6672351360321045,658.0
3.6721432209014893,658.0
3.6767470836639404,667.0
3.682081937789917,660.0
3.690087080001831,677.0
3.6955881118774414,678.0
3.700411081314087,672.0
3.7049901485443115,671.0
3.7098541259765625,644.0
3.7141969203948975,662.0
3.7192230224609375,641.0
3.7242510318756104,655.0
3.731959104537964,656.0
3.7372710704803467,656.0
3.7449951171875,631.0
3.750349998474121,657.0
3.754873037338257,664.0
3.7619881629943848,670.0
3.7670681476593018,677.0
3.771752119064331,677.0
3.7789769172668457,671.0
3.787114143371582,671.0
3.7953240871429443,679.0
3.8005542755126953,681.0
3.805371046066284,693.0
3.812863349914551,706.0
3.820528030395508,719.0
3.8257250785827637,707.0
3.830479145050049,718.0
3.836912155151367,712.0
3.8424110412597656,696.0
3.8476510047912598,688.0
3.853149175643921,677.0
3.8572380542755127,667.0
3.8624210357666016,657.0
3.867065191268921,658.0
3.8729851245880127,665.0
3.8776979446411133,653.0
3.8829753398895264,674.0
3.8914201259613037,676.0
3.895915985107422,673.0
3.90067720413208,674.0
3.90628719329834,667.0
3.9112749099731445,671.0
3.9168219566345215,672.0
3.921931028366089,660.0
3.92962908744812,669.0
3.9351038932800293,648.0
3.9397380352020264,674.0
3.9449641704559326,677.0
3.9496450424194336,653.0
3.9584391117095947,684.0
3.9665472507476807,680.0
3.971403121948242,656.0
3.9787380695343018,689.0
3.984246015548706,657.0
3.9892361164093018,684.0
3.996077060699463,683.0
4.000807285308838,686.0
4.006280183792114,685.0
4.011054992675781,686.0
4.0154712200164795,685.0
4.020297288894653,680.0
4.025044918060303,671.0
4.029993295669556,682.0
4.037358999252319,673.0
4.0427281856536865,684.0
4.048026084899902,691.0
4.052548170089722,679.0
4.0576722621917725,672.0
4.065699100494385,675.0
4.071691036224365,678.0
4.079549074172974,675.0
4.085436105728149,680.0
4.090046167373657,680.0
4.095145225524902,684.0
4.100345134735107,684.0
4.105488061904907,692.0
4.1127259731292725,689.0
4.119009017944336,671.0
4.124125242233276,682.0
4.1293251514434814,695.0
4.133968114852905,694.0
4.138647079467773,687.0
4.145612955093384,667.0
4.150573968887329,683.0
4.156591176986694,685.0
4.161524295806885,683.0
4.167510986328125,681.0
4.172583103179932,686.0
4.1797051429748535,690.0
4.1873719692230225,678.0
4.1927690505981445,694.0
4.197211027145386,702.0
4.204836130142212,707.0
4.2133800983428955,709.0
4.219354152679443,715.0
4.223849296569824,710.0
4.228984117507935,709.0
4.233760118484497,702.0
4.239007949829102,688.0
4.244302034378052,705.0
4.249512195587158,706.0
4.25745415687561,706.0
4.26317834854126,701.0
4.270447015762329,672.0
4.275896072387695,693.0
4.281140327453613,692.0
4.288151025772095,664.0
4.294143199920654,684.0
4.298232078552246,690.0
4.3033881187438965,684.0
4.30788516998291,690.0
4.312629222869873,691.0
4.317247152328491,694.0
4.325366020202637,698.0
4.330404043197632,671.0
4.337568044662476,679.0
4.343306303024292,661.0
4.34836220741272,664.0
4.35375714302063,656.0
4.359189987182617,651.0
4.364604234695435,661.0
4.3698890209198,682.0
4.375288009643555,685.0
4.382792234420776,669.0
4.3878912925720215,697.0
4.392805099487305,699.0
4.397794961929321,695.0
4.40503716468811,721.0
4.413649082183838,730.0
4.420024156570435,730.0
4.425878047943115,753.0
4.430660009384155,726.0
4.436352968215942,741.0
4.44118595123291,714.0
4.446396112442017,683.0
4.4516441822052,635.0
4.457565069198608,629.0
4.463625192642212,606.0
4.47133994102478,590.0
4.477802991867065,588.0
4.482950210571289,579.0
4.487667083740234,599.0
4.492911100387573,616.0
4.497818231582642,622.0
4.5046751499176025,638.0
4.513027191162109,649.0
4.521305084228516,663.0
4.529246091842651,668.0
4.535985231399536,656.0
4.541786193847656,692.0
4.550584077835083,707.0
4.558030128479004,722.0
4.5636351108551025,740.0
4.569021224975586,740.0
4.574856281280518,725.0
4.580565929412842,711.0
4.588021993637085,691.0
4.595757007598877,671.0
4.601058006286621,659.0
4.607947111129761,624.0
4.612866163253784,643.0
4.617782115936279,637.0
4.625864267349243,636.0
4.634457111358643,648.0
4.638864040374756,656.0
4.646491050720215,662.0
4.65273118019104,661.0
4.656639337539673,673.0
4.661574125289917,680.0
4.666355133056641,680.0
4.6721062660217285,684.0
4.679774284362793,683.0
4.685732126235962,691.0
4.690962076187134,684.0
4.695845127105713,687.0
4.7020041942596436,697.0
4.707434177398682,693.0
4.71258807182312,674.0
4.717767238616943,699.0
4.723028182983398,695.0
4.7288970947265625,695.0
4.7345662117004395,690.0
4.74182391166687,679.0
4.747789144515991,688.0
4.75289511680603,684.0
4.758572101593018,686.0
4.763645172119141,678.0
4.771527051925659,680.0
4.780198097229004,677.0
4.786955118179321,675.0
4.791700124740601,679.0
4.796597957611084,677.0
4.800934076309204,681.0
4.807979106903076,667.0
4.812551259994507,696.0
4.817525148391724,701.0
4.826036214828491,687.0
4.831463098526001,712.0
4.836958169937134,710.0
4.842246055603027,713.0
4.850435018539429,709.0
4.858333110809326,698.0
4.867275953292847,693.0
4.873063087463379,685.0
4.880479335784912,681.0
4.889084100723267,672.0
4.896237134933472,643.0
4.901101112365723,665.0
4.90555214881897,662.0
4.9107959270477295,640.0
4.916405916213989,659.0
4.921402215957642,656.0
4.9265382289886475,658.0
4.935006141662598,672.0
4.939825057983398,679.0
4.946634292602539,674.0
4.952121019363403,705.0
4.957911014556885,703.0
4.962957143783569,704.0
4.968224048614502,693.0
4.975022077560425,657.0
4.980364084243774,678.0
4.985109090805054,678.0
4.992876052856445,653.0
5.000211238861084,681.0
5.005144119262695,688.0
5.009987115859985,687.0
5.014816999435425,687.0
5.022052049636841,681.0
5.0274810791015625,677.0
5.032095193862915,657.0
5.039330959320068,675.0
5.047205209732056,671.0
5.05571722984314,680.0
5.061748266220093,653.0
5.0666069984436035,679.0
5.071345090866089,651.0
5.075378179550171,676.0
5.080286264419556,679.0
5.085017204284668,678.0
5.0925211906433105,654.0
5.099447011947632,685.0
5.10434103012085,692.0
5.109187126159668,693.0
5.117321252822876,692.0
5.125211238861084,670.0
5.130622148513794,694.0
5.1351542472839355,692.0
5.142668962478638,687.0
5.150774002075195,692.0
5.158119201660156,699.0
5.163694143295288,696.0
5.168501138687134,677.0
5.173535346984863,705.0
5.1785500049591064,710.0
5.183258056640625,709.0
5.188078165054321,711.0
5.192356109619141,711.0
5.197305202484131,706.0
5.201442003250122,701.0
5.209789276123047,694.0
5.217386245727539,688.0
5.222881078720093,685.0
5.2281882762908936,679.0
5.233123064041138,670.0
5.238264083862305,678.0
5.243166208267212,683.0
5.252231121063232,666.0
5.258219957351685,688.0
5.2645251750946045,691.0
5.269489049911499,699.0
5.274976968765259,673.0
5.281147241592407,699.0
5.285985946655273,694.0
5.292425155639648,695.0
5.297743082046509,697.0
5.302954912185669,668.0
5.30808424949646,690.0
5.314097166061401,693.0
5.319218158721924,666.0
5.324428081512451,684.0
5.332421064376831,688.0
5.338968992233276,680.0
5.344348192214966,651.0
5.3494713306427,672.0
5.3548243045806885,672.0
5.360091209411621,648.0
5.36490797996521,678.0
5.369638204574585,675.0
5.374919176101685,675.0
5.379821062088013,675.0
5.384361267089844,664.0
5.389777183532715,663.0
5.3974292278289795,663.0
5.40523624420166,663.0
5.410753011703491,670.0
5.415356159210205,661.0
5.4229350090026855,656.0
5.430649995803833,691.0
5.436381101608276,681.0
5.441288232803345,658.0
5.446704149246216,677.0
5.452122211456299,649.0
5.459550142288208,658.0
5.467228174209595,652.0
5.472537994384766,643.0
5.47785210609436,646.0
5.483379125595093,643.0
5.488777160644531,645.0
5.493429183959961,644.0
5.501240015029907,643.0
5.508637189865112,641.0
5.515243053436279,618.0
5.523519277572632,646.0
5.529572010040283,655.0
5.534264087677002,662.0
5.5394532680511475,637.0
5.544494152069092,670.0
5.549352169036865,681.0
5.554683208465576,689.0
5.5594000816345215,678.0
5.564072132110596,679.0
5.5696821212768555,648.0
5.574470043182373,628.0
5.579966306686401,635.0
5.58465313911438,601.0
5.592790126800537,621.0
5.597829103469849,620.0
5.602783203125,621.0
5.6086859703063965,633.0
5.613946199417114,631.0
5.619065999984741,644.0
5.627302169799805,624.0
5.632511138916016,662.0
5.639792203903198,679.0
5.647907018661499,696.0
5.653306007385254,693.0
5.658689975738525,698.0
5.663485288619995,705.0
5.66875696182251,673.0
5.676441192626953,664.0
5.6849730014801025,651.0
5.692843914031982,643.0
5.6975579261779785,635.0
5.701952934265137,638.0
5.709352254867554,648.0
5.715100049972534,653.0
5.722760200500488,636.0
5.7314982414245605,669.0
5.739472150802612,676.0
5.745349168777466,675.0
5.750331163406372,673.0
5.75517725944519,646.0
5.760679244995117,682.0
5.765935182571411,665.0
5.773418188095093,646.0
5.781990051269531,654.0
5.78993821144104,653.0
5.794847249984741,656.0
5.799138069152832,656.0
5.803166151046753,643.0
5.807865142822266,659.0
5.81277322769165,661.0
5.81742000579834,653.0
5.822109222412109,660.0
5.826702117919922,631.0
5.834428071975708,657.0
5.839820146560669,657.0
5.844478130340576,658.0
5.849739074707031,672.0
5.8572471141815186,686.0
5.863508939743042,696.0
5.868223190307617,712.0
5.8736512660980225,713.0
5.878335237503052,709.0
5.883195161819458,697.0
5.888452053070068,685.0
5.893300294876099,683.0
5.897752046585083,676.0
5.902514219284058,672.0
5.910130262374878,676.0
5.917953014373779,676.0
5.923381328582764,674.0
5.928173065185547,666.0
5.936139106750488,673.0
5.941655158996582,670.0
5.946687936782837,648.0
5.9514360427856445,670.0
5.9569151401519775,680.0
5.962110280990601,685.0
5.967540264129639,693.0
5.972942113876343,697.0
5.97772216796875,690.0
5.985332250595093,697.0
5.993273019790649,699.0
5.998436212539673,663.0
6.003725051879883,682.0
6.008523941040039,685.0
6.0138421058654785,684.0
6.018289089202881,688.0
6.02325701713562,691.0
6.028523921966553,671.0
6.0334272384643555,695.0
6.038777112960815,700.0
6.043384075164795,707.0
6.04787015914917,712.0
6.052200078964233,699.0
6.059888124465942,702.0
6.065075159072876,687.0
6.069879055023193,696.0
6.077941179275513,699.0
6.082453966140747,693.0
6.087013006210327,704.0
6.091330051422119,686.0
6.098279237747192,700.0
6.103508234024048,702.0
6.108177185058594,683.0
6.115249156951904,704.0
6.12287712097168,708.0
6.128489255905151,719.0
6.133288145065308,726.0
6.140625238418579,736.0
6.1468541622161865,729.0
6.151669263839722,731.0
6.156890153884888,711.0
6.16209602355957,715.0
6.166687965393066,712.0
6.173748254776001,699.0
6.179012060165405,701.0
6.184375047683716,698.0
6.189687967300415,689.0
6.19465708732605,691.0
6.202355146408081,682.0
6.210352182388306,687.0
6.215193033218384,687.0
6.219983100891113,664.0
6.227004051208496,684.0
6.231765031814575,685.0
6.2363221645355225,686.0
6.244544982910156,663.0
6.251820087432861,684.0
6.256693363189697,690.0
6.261267185211182,684.0
6.266504287719727,683.0
6.273832082748413,685.0
6.280105113983154,681.0
6.284882068634033,693.0
6.290510177612305,708.0
6.295679330825806,713.0
6.3005690574646,702.0
6.307690143585205,707.0
6.316099166870117,700.0
6.324174165725708,680.0
6.3318932056427,686.0
6.337285041809082,681.0
6.342970132827759,679.0
6.347774267196655,657.0
6.3533759117126465,678.0
6.358291149139404,677.0
6.3658881187438965,682.0
6.373992204666138,679.0
6.3818652629852295,691.0
6.387253284454346,680.0
6.3922741413116455,677.0
6.399050235748291,682.0
6.407160997390747,690.0
6.412739038467407,687.0
6.417915105819702,667.0
6.422904014587402,668.0
6.428722143173218,693.0
6.433367967605591,681.0
6.441092014312744,665.0
6.446874141693115,667.0
6.451425075531006,693.0
6.456656217575073,693.0
6.461392164230347,700.0
6.469867944717407,683.0
6.4774181842803955,696.0
6.485384225845337,682.0
6.490346908569336,681.0
6.494342088699341,684.0
6.5014801025390625,678.0
6.5064942836761475,658.0
6.510913133621216,686.0
6.519036054611206,693.0
6.524457216262817,690.0
6.532196044921875,692.0
6.537596225738525,680.0
6.542632102966309,690.0
6.548067092895508,669.0
6.552281141281128,688.0
6.557330131530762,675.0
6.561938285827637,689.0
6.570900917053223,688.0
6.576106309890747,690.0
6.583233118057251,677.0
6.590903043746948,692.0
6.59587025642395,690.0
6.600703239440918,697.0
6.607438087463379,695.0
6.6156041622161865,690.0
6.621140241622925,695.0
6.626142263412476,688.0
6.6330742835998535,672.0
6.639436960220337,685.0
6.643907070159912,680.0
6.64902400970459,649.0
6.654345273971558,672.0
6.659761190414429,674.0
6.664757966995239,650.0
6.669989109039307,665.0
6.6771581172943115,667.0
6.682636976242065,669.0
6.687262296676636,657.0
6.695266962051392,674.0
6.700072288513184,685.0
6.707518100738525,687.0
6.71605110168457,675.0
6.7215821743011475,670.0
6.726508140563965,699.0
6.731127977371216,708.0
6.7370240688323975,703.0
6.745683193206787,699.0
6.751689195632935,693.0
6.756916284561157,690.0
6.761930227279663,679.0
6.767300128936768,677.0
6.774994134902954,667.0
6.780890226364136,655.0
6.7860400676727295,660.0
6.791645288467407,659.0
6.798774003982544,636.0
6.804095268249512,664.0
6.808451175689697,664.0
6.815636157989502,641.0
6.821158170700073,668.0
6.825788259506226,665.0
6.832924127578735,661.0
6.840533018112183,663.0
6.846363067626953,654.0
6.851031064987183,658.0
6.856326103210449,659.0
6.8610100746154785,654.0
6.866762161254883,673.0
6.874359130859375,672.0
6.88290810585022,676.0
6.890830993652344,670.0
6.896295070648193,678.0
6.901019096374512,660.0
6.905572175979614,693.0
6.91031813621521,676.0
6.915373086929321,704.0
6.919889211654663,681.0
6.928207159042358,704.0
6.936377048492432,672.0
6.944697141647339,668.0
6.952704906463623,674.0
6.9581170082092285,649.0
6.9629151821136475,662.0
6.967868089675903,658.0
6.972935199737549,658.0
6.977452993392944,631.0
6.983596086502075,658.0
6.991419076919556,663.0
6.996438980102539,662.0
7.000915288925171,673.0
7.007284164428711,676.0
7.013413190841675,651.0
7.018515110015869,674.0
7.0241100788116455,653.0
7.029015064239502,675.0
7.036384105682373,673.0
7.0423102378845215,647.0
7.0477471351623535,670.0
7.052803993225098,649.0
7.057760000228882,671.0
7.062516212463379,669.0
7.067631006240845,674.0
7.073190212249756,642.0
7.077905178070068,668.0
7.084184169769287,662.0
7.089715242385864,661.0
7.094179153442383,668.0
7.098719120025635,685.0
7.103738069534302,675.0
7.111752271652222,698.0
7.120691299438477,688.0
7.1278510093688965,690.0
7.133361101150513,657.0
7.138183116912842,676.0
7.143204212188721,666.0
7.148219108581543,665.0
7.15329909324646,641.0
7.161031246185303,660.0
7.166534185409546,658.0
7.171221971511841,633.0
7.176202297210693,671.0
7.180913209915161,667.0
7.18651008605957,673.0
7.192270994186401,668.0
7.199409246444702,640.0
7.204767942428589,665.0
7.209474086761475,668.0
7.217077970504761,664.0
7.225082159042358,664.0
7.23298192024231,665.0
7.241394281387329,673.0
7.246860980987549,673.0
7.252294063568115,669.0
7.257354974746704,681.0
7.26170015335083,682.0
7.267199993133545,681.0
7.271812200546265,685.0
7.277677059173584,683.0
7.283020973205566,683.0
7.288198232650757,662.0
7.293454170227051,665.0
7.298394203186035,681.0
7.303009033203125,690.0
7.30845832824707,690.0
7.313381195068359,691.0
7.318836212158203,698.0
7.3241729736328125,679.0
7.329626083374023,698.0
7.3384881019592285,702.0
7.343760013580322,705.0
7.348462104797363,680.0
7.35330605506897,701.0
7.358415126800537,711.0
7.366854190826416,690.0
7.374935150146484,684.0
7.381002902984619,678.0
7.3855531215667725,676.0
7.390483140945435,647.0
7.395226001739502,668.0
7.403128147125244,656.0
7.409026145935059,658.0
7.416561126708984,649.0
7.422468185424805,639.0
7.4277801513671875,639.0
7.433040142059326,639.0
7.438602924346924,647.0
7.4437549114227295,658.0
7.4491729736328125,662.0
7.454209089279175,679.0
7.461647033691406,681.0
7.467156171798706,688.0
7.471896171569824,696.0
7.477303981781006,688.0
7.4828760623931885,694.0
7.487933158874512,711.0
7.493133068084717,715.0
7.5002522468566895,742.0
7.5081751346588135,756.0
7.51347804069519,768.0
7.519216060638428,748.0
7.525170087814331,713.0
7.529693126678467,686.0
7.537058115005493,661.0
7.542283058166504,638.0
7.550076246261597,598.0
7.555437088012695,616.0
7.560225009918213,616.0
7.56485915184021,623.0
7.5698301792144775,623.0
7.574820041656494,625.0
7.580161094665527,635.0
7.584896087646484,637.0
7.5896522998809814,643.0
7.593712091445923,657.0
7.600619077682495,632.0
7.6086719036102295,663.0
7.614932298660278,668.0
7.619818210601807,665.0
7.624763250350952,678.0
7.629622936248779,668.0
7.638390064239502,686.0
7.646886110305786,672.0
7.651594161987305,683.0
7.6590611934661865,669.0
7.666936159133911,681.0
7.672575235366821,683.0
7.677191257476807,675.0
7.684272050857544,679.0
7.69205117225647,671.0
7.700000047683716,673.0
7.705406188964844,675.0
7.709985971450806,677.0
7.7172651290893555,673.0
7.7254111766815186,679.0
7.730967044830322,679.0
7.736461162567139,668.0
7.741652965545654,684.0
7.746894121170044,684.0
7.751436948776245,676.0
7.7587902545928955,679.0
7.764671325683594,677.0
7.769744157791138,677.0
7.7746641635894775,660.0
7.780016183853149,676.0
7.788133144378662,673.0
7.795439004898071,675.0
7.800183057785034,658.0
7.804530143737793,663.0
7.812035083770752,654.0
7.816932201385498,627.0
7.821702241897583,653.0
7.830057144165039,660.0
7.8383469581604,661.0
7.845870018005371,663.0
7.853595018386841,666.0
7.859069108963013,653.0
7.863868236541748,663.0
7.869556188583374,653.0
7.874686241149902,651.0
7.8802809715271,652.0
7.887613296508789,665.0
7.895920038223267,676.0
7.903887033462524,686.0
7.908757925033569,695.0
7.913684129714966,704.0
7.9210450649261475,696.0
7.929121017456055,696.0
7.934250354766846,678.0
7.939630031585693,667.0
7.945261001586914,654.0
7.950409173965454,685.0
7.955372095108032,681.0
7.961176156997681,713.0
7.96639609336853,706.0
7.971536159515381,694.0
7.979362964630127,670.0
7.986884117126465,656.0
7.9922380447387695,646.0
7.996116876602173,631.0
8.003246068954468,599.0
8.008004188537598,626.0
8.012516021728516,631.0
8.017858028411865,649.0
8.025390148162842,649.0
8.031423330307007,630.0
8.036514043807983,661.0
8.041239976882935,651.0
8.046779155731201,663.0
8.05511212348938,659.0
8.062419176101685,664.0
8.067530155181885,659.0
8.071741104125977,663.0
8.08043622970581,666.0
8.087723016738892,660.0
8.094926118850708,672.0
8.099695205688477,675.0
8.10421109199524,678.0
8.108999252319336,671.0
8.113739967346191,683.0
8.121334075927734,677.0
8.129496097564697,678.0
8.136786222457886,656.0
8.14199709892273,686.0
8.147219181060791,685.0
8.155444145202637,687.0
8.163739204406738,681.0
8.171296119689941,682.0
8.178998947143555,675.0
8.184423208236694,679.0
8.18910813331604,682.0
8.19350814819336,684.0
8.197570085525513,682.0
8.204447269439697,687.0
8.209087133407593,688.0
8.214830160140991,689.0
8.220302104949951,684.0
8.225817203521729,695.0
8.231099128723145,699.0
8.235882997512817,701.0
8.243176221847534,703.0
8.25089716911316,696.0
8.256303071975708,691.0
8.261518001556396,679.0
8.268299102783203,688.0
8.272907018661499,688.0
8.277990102767944,684.0
8.28355598449707,667.0
8.288433074951172,696.0
8.29547119140625,686.0
8.30035400390625,702.0
8.304258108139038,685.0
8.309386968612671,708.0
8.314310073852539,707.0
8.319907188415527,709.0
8.32520604133606,709.0
8.330427169799805,702.0
8.33801531791687,706.0
8.345586061477661,703.0
8.350611209869385,703.0
8.355377197265625,706.0
8.362893104553223,700.0
8.3684241771698,687.0
8.376251220703125,703.0
8.384401082992554,692.0
8.389740943908691,704.0
8.394314289093018,702.0
8.400795221328735,712.0
8.405708074569702,709.0
8.413102149963379,715.0
8.420491933822632,717.0
8.425170183181763,718.0
8.429673194885254,715.0
8.434313297271729,682.0
8.438568115234375,706.0
8.446398258209229,701.0
8.45440411567688,697.0
8.459506273269653,683.0
8.464519262313843,678.0
8.469423055648804,682.0
8.475624084472656,678.0
8.48084020614624,682.0
8.488309144973755,679.0
8.495631217956543,685.0
8.500147104263306,685.0
8.50475001335144,687.0
8.509522199630737,688.0
8.514442205429077,691.0
8.518830060958862,686.0
8.526629209518433,690.0
8.53432321548462,677.0
8.539236068725586,673.0
8.546586036682129,691.0
8.554798126220703,687.0
8.559829950332642,672.0
8.564985036849976,689.0
8.569837093353271,692.0
8.574702024459839,666.0
8.578855276107788,687.0
8.583724021911621,685.0
8.588028192520142,687.0
8.592694997787476,678.0
8.596466064453125,678.0
8.60118317604065,677.0
8.605653047561646,673.0
8.613066911697388,671.0
8.617506980895996,676.0
8.622486114501953,677.0
8.629777193069458,678.0
8.634984254837036,686.0
8.640117168426514,679.0
8.645718097686768,683.0
8.651195049285889,687.0
8.656620979309082,685.0
8.661699056625366,680.0
8.66686725616455,684.0
8.671694993972778,674.0
8.679378271102905,691.0
8.684978246688843,688.0
8.689702033996582,664.0
8.697418928146362,692.0
8.702614068984985,662.0
8.710110187530518,689.0
8.71834111213684,671.0
8.723631143569946,684.0
8.729005098342896,655.0
8.733757257461548,666.0
8.739304304122925,680.0
8.746843099594116,658.0
8.754475116729736,680.0
8.759819984436035,658.0
8.764480113983154,684.0
8.769986152648926,666.0
8.775227069854736,686.0
8.779969930648804,686.0
8.784727096557617,680.0
8.790133237838745,685.0
8.794987916946411,659.0
8.800790071487427,682.0
8.806109189987183,678.0
8.814428091049194,684.0
8.821818113327026,690.0
8.827430248260498,687.0
8.83495807647705,676.0
8.84034013748169,694.0
8.845355987548828,667.0
8.850324153900146,691.0
8.855808973312378,693.0
8.863593101501465,686.0
8.87143325805664,663.0
8.875755071640015,675.0
8.880375146865845,668.0
8.888443231582642,669.0
8.89354419708252,651.0
8.89858102798462,668.0
8.903841972351074,674.0
8.908988237380981,668.0
8.91356897354126,664.0
8.917984962463379,667.0
8.923423290252686,639.0
8.92855429649353,665.0
8.935553073883057,649.0
8.943104982376099,665.0
8.948877096176147,665.0
8.953200101852417,642.0
8.959341049194336,671.0
8.964731216430664,679.0
8.97283411026001,684.0
8.97953724861145,688.0
8.984856128692627,663.0
8.989587306976318,670.0
8.996709108352661,667.0
9.001410007476807,663.0
9.006109237670898,656.0
9.013840198516846,662.0
9.021578311920166,651.0
9.026739120483398,648.0
9.031828165054321,647.0
9.035823106765747,636.0
9.040470123291016,642.0
9.045567989349365,627.0
9.05016016960144,641.0
9.054996967315674,631.0
9.059920072555542,649.0
9.065346002578735,655.0
9.07059121131897,658.0
9.075391292572021,666.0
9.07978630065918,668.0
9.084572076797485,661.0
9.089247226715088,655.0
9.096676111221313,671.0
9.101752996444702,652.0
9.107243061065674,685.0
9.11222219467163,697.0
9.11724305152893,704.0
9.121785163879395,700.0
9.127303123474121,694.0
9.131956338882446,688.0
9.136654138565063,675.0
9.14385724067688,669.0
9.15228796005249,657.0
9.160224914550781,661.0
9.165842294692993,647.0
9.170738220214844,658.0
9.175321102142334,664.0
9.180593252182007,634.0
9.188489198684692,659.0
9.193596124649048,658.0
9.19824504852295,635.0
9.203189134597778,652.0
9.210576057434082,661.0
9.218863010406494,648.0
9.226619243621826,661.0
9.235303163528442,660.0
9.24067211151123,664.0
9.24573826789856,667.0
9.252954006195068,667.0
9.259232997894287,674.0
9.26465106010437,678.0
9.273213148117065,660.0
9.280846118927002,688.0
9.288900136947632,696.0
9.29401707649231,703.0
9.298336029052734,690.0
9.306463956832886,701.0
9.31398320198059,700.0
9.322270154953003,697.0
9.327561140060425,696.0
9.332288980484009,690.0
9.339956283569336,685.0
9.348066091537476,671.0
9.355520963668823,659.0
9.361313104629517,656.0
9.369179248809814,647.0
9.374239921569824,642.0
9.3785400390625,627.0
9.385493993759155,603.0
9.390897035598755,630.0
9.396496057510376,635.0
9.4013991355896,619.0
9.40625810623169,650.0
9.413465023040771,665.0
9.418565034866333,657.0
9.42308235168457,674.0
9.430844068527222,679.0
9.438560962677002,659.0
9.4430251121521,676.0
9.44803500175476,680.0
9.455531120300293,694.0
9.460344076156616,682.0
9.464381217956543,721.0
9.472379207611084,693.0
9.477187156677246,708.0
9.482044219970703,697.0
9.490547180175781,683.0
9.494993209838867,667.0
9.502402067184448,651.0
9.510207891464233,641.0
9.515218257904053,630.0
9.522325038909912,634.0
9.52709412574768,605.0
9.531899213790894,633.0
9.539210319519043,644.0
9.547239065170288,653.0
9.551623106002808,664.0
9.555704116821289,673.0
9.561002254486084,675.0
9.565824031829834,682.0
9.571310043334961,664.0
9.576611042022705,660.0
9.582032203674316,687.0
9.590576171875,689.0
9.595191955566406,675.0
9.601640224456787,692.0
9.607388257980347,692.0
9.61247992515564,691.0
9.617715120315552,689.0
9.62238621711731,683.0
9.627829313278198,684.0
9.635053157806396,686.0
9.640947103500366,690.0
9.64561414718628,637.0
9.65071725845337,692.0
9.655132055282593,686.0
9.660462141036987,684.0
9.665595054626465,687.0
9.670593023300171,690.0
9.676027059555054,663.0
9.680948257446289,674.0
9.686046123504639,691.0
9.690993070602417,693.0
9.69568920135498,671.0
9.703079223632812,694.0
9.711673021316528,693.0
9.717988014221191,696.0
9.723554134368896,679.0
9.732008218765259,699.0
9.740315198898315,704.0
9.749047994613647,702.0
9.754043102264404,710.0
9.76150107383728,708.0
9.769525289535522,704.0
9.778374195098877,686.0
9.787106990814209,692.0
9.7935791015625,684.0
9.79796814918518,667.0
9.806073188781738,659.0
9.81111216545105,624.0
9.816195011138916,643.0
9.821388959884644,637.0
9.826668977737427,637.0
9.832160949707031,641.0
9.840888023376465,611.0
9.846205234527588,632.0
9.851647138595581,635.0
9.85615611076355,635.0
9.861240148544312,640.0
9.869254112243652,643.0
9.874483108520508,648.0
9.879338264465332,662.0
9.884647130966187,685.0
9.889405250549316,712.0
9.893811225891113,739.0
9.897810220718384,714.0
9.90286898612976,727.0
9.908060073852539,701.0
9.913178205490112,651.0
9.918589115142822,618.0
9.924015045166016,610.0
9.93146014213562,600.0
9.939550161361694,595.0
9.945132970809937,602.0
9.952614068984985,610.0
9.961340188980103,618.0
9.9673912525177,633.0
9.97164511680603,621.0
9.976114273071289,647.0
9.980844020843506,654.0
9.986287117004395,620.0
9.991056203842163,633.0
9.996005058288574,629.0
10.003288984298706,662.0
10.011048078536987,662.0
10.016359090805054,660.0
10.020732164382935,659.0
10.027420043945312,657.0
10.032784223556519,657.0
10.037322282791138,643.0
10.044230222702026,638.0
10.052891254425049,637.0
10.061414241790771,634.0
10.069714069366455,640.0
10.075031995773315,643.0
10.079389095306396,649.0
10.086395025253296,638.0
10.091544151306152,652.0
10.09630012512207,672.0
10.101058959960938,678.0
10.105262994766235,679.0
10.110028982162476,677.0
10.113899946212769,662.0
10.118571996688843,665.0
10.122369050979614,651.0
10.127243995666504,664.0
10.132245063781738,654.0
10.138962268829346,665.0
10.143294095993042,664.0
10.147785186767578,666.0
10.153141260147095,668.0
10.157822132110596,677.0
10.161994934082031,679.0
10.166292190551758,686.0
10.170789003372192,690.0
10.174947023391724,683.0
10.179785251617432,688.0
10.186708211898804,683.0
10.19507908821106,684.0
10.199880123138428,684.0
10.204076051712036,682.0
10.211491107940674,678.0
10.219542026519775,654.0
10.224956274032593,676.0
10.229981184005737,673.0
10.23678207397461,671.0
10.241655111312866,668.0
10.24643611907959,669.0
10.251129150390625,673.0
10.255746126174927,673.0
10.25991415977478,683.0
10.264267921447754,693.0
10.26859426498413,667.0
10.272547006607056,696.0
10.277599334716797,698.0
10.281269311904907,690.0
10.285942077636719,656.0
10.289592981338501,673.0
10.294002294540405,664.0
10.298443078994751,669.0
10.305382251739502,673.0
10.310424089431763,681.0
10.314512014389038,685.0
10.318753004074097,686.0
10.324189186096191,684.0
10.331943273544312,684.0
10.339354038238525,682.0
10.345088005065918,657.0
10.350128173828125,676.0
10.354446172714233,672.0
10.361272096633911,677.0
10.366138219833374,672.0
10.37431025505066,674.0
10.382437229156494,674.0
10.39025092124939,669.0
10.398144006729126,678.0
10.403209209442139,675.0
10.407927989959717,679.0
10.412532329559326,678.0
10.420006036758423,682.0
10.425066947937012,688.0
10.42958116531372,695.0
10.436278104782104,673.0
10.440996170043945,695.0
10.445723056793213,700.0
10.453158140182495,688.0
10.45882797241211,681.0
10.463502168655396,696.0
10.470655918121338,702.0
10.47818899154663,701.0
10.48296308517456,668.0
10.490032196044922,698.0
10.494639158248901,679.0
10.499674081802368,690.0
10.507679224014282,665.0
10.515230178833008,697.0
10.523138046264648,688.0
10.527642011642456,693.0
10.531443119049072,669.0
10.53557801246643,678.0
10.540264129638672,684.0
10.547502994537354,662.0
10.552251100540161,670.0
10.556267976760864,664.0
10.561403036117554,654.0
10.565997123718262,672.0
10.573431968688965,678.0
10.578158140182495,680.0
10.582909107208252,677.0
10.590347051620483,684.0
10.598113059997559,705.0
10.602744102478027,709.0
10.606816053390503,710.0
10.611122131347656,710.0
10.615957975387573,713.0
10.62335205078125,707.0
10.628554344177246,684.0
10.632918119430542,704.0
10.64136004447937,672.0
10.649370193481445,691.0
10.657179117202759,687.0
10.664919137954712,650.0
10.66980504989624,670.0
10.674592971801758,669.0
10.681826114654541,663.0
10.687238216400146,656.0
10.691910028457642,667.0
10.696572065353394,654.0
10.703230142593384,672.0
10.708245992660522,676.0
10.71563720703125,657.0
10.72286605834961,676.0
10.7272469997406,661.0
10.731693983078003,672.0
10.736732244491577,669.0
10.741308212280273,654.0
10.748214960098267,671.0
10.753318071365356,671.0
10.757765054702759,670.0
10.764825105667114,667.0
10.769663333892822,659.0
10.773513317108154,670.0
10.778293132781982,667.0
10.782949209213257,643.0
10.790375232696533,669.0
10.795253992080688,672.0
10.799920082092285,656.0
10.806661128997803,677.0
10.811262130737305,670.0
10.815141201019287,644.0
10.819852113723755,665.0
10.823922157287598,636.0
10.831140041351318,659.0
10.835694074630737,639.0
10.84014105796814,660.0
10.84439492225647,646.0
10.84843897819519,662.0
10.853846073150635,663.0
10.858099222183228,653.0
10.864938974380493,645.0
10.869360208511353,644.0
10.873281002044678,637.0
10.877394199371338,646.0
10.882162094116211,635.0
10.88660717010498,678.0
10.89155125617981,692.0
10.89589810371399,700.0
10.90012788772583,693.0
10.904282093048096,710.0
10.908409118652344,715.0
10.916377067565918,712.0
10.923120021820068,682.0
10.927749156951904,692.0
10.932140111923218,657.0
10.936414241790771,672.0
10.941282033920288,661.0
10.94890308380127,660.0
10.953821182250977,660.0
10.958394050598145,662.0
10.965689182281494,648.0
10.97395920753479,655.0
10.981569051742554,652.0
10.986082077026367,654.0
10.990618228912354,655.0
10.994952201843262,660.0
10.999961137771606,664.0
11.004168272018433,645.0
11.011906147003174,681.0
11.017054319381714,681.0
11.021260976791382,689.0
11.025429964065552,665.0
11.030087232589722,685.0
11.03673529624939,694.0
11.042273998260498,688.0
11.047054052352905,684.0
11.053883075714111,683.0
11.059390306472778,645.0
11.063790082931519,679.0
11.070919275283813,677.0
11.078784942626953,672.0
11.083944082260132,647.0
11.088299989700317,667.0
11.09505033493042,664.0
11.100549221038818,670.0
11.104868173599243,668.0
11.111386060714722,668.0
11.116575241088867,669.0
11.124861240386963,677.0
11.132586240768433,675.0
11.140249013900757,677.0
11.144991159439087,657.0
11.150145053863525,686.0
11.154410123825073,689.0
11.158685207366943,689.0
11.163453102111816,691.0
11.1687331199646,666.0
11.172921180725098,686.0
11.177001237869263,660.0
11.181482315063477,680.0
11.18616008758545,680.0
11.19149112701416,675.0
11.198699951171875,675.0
11.203598022460938,670.0
11.208372116088867,651.0
11.215631008148193,670.0
11.220189094543457,668.0
11.224127292633057,657.0
11.228836059570312,671.0
11.233724117279053,651.0
11.23768424987793,671.0
11.242948055267334,647.0
11.247672080993652,684.0
11.252263069152832,684.0
11.256469964981079,684.0
11.261542081832886,684.0
11.266106128692627,667.0
11.273641109466553,681.0
11.278451204299927,670.0
11.283782243728638,686.0
11.291576147079468,685.0
11.298454999923706,691.0
11.303744077682495,696.0
11.30848503112793,695.0
11.31687331199646,699.0
11.324160099029541,691.0
11.329576253890991,679.0
11.334410190582275,690.0
11.33901834487915,682.0
11.3458092212677,686.0
11.35359001159668,660.0
11.358408212661743,680.0
11.36518907546997,678.0
11.369936227798462,676.0
11.374788045883179,679.0
11.3818039894104,674.0
11.386990070343018,658.0
11.392167091369629,674.0
11.39916729927063,648.0
11.404684066772461,673.0
11.412190198898315,674.0
11.417054176330566,678.0
11.424376010894775,672.0
11.432446241378784,665.0
11.437244176864624,690.0
11.441289186477661,701.0
11.448605298995972,707.0
11.453226327896118,729.0
11.457663297653198,759.0
11.462155103683472,730.0
11.466006994247437,714.0
11.470158100128174,693.0
11.47517204284668,668.0
11.482354164123535,675.0
11.486682176589966,659.0
11.490575075149536,648.0
11.495185136795044,658.0
11.499184131622314,657.0
11.503740072250366,636.0
11.508418083190918,667.0
11.516162157058716,661.0
11.523853063583374,674.0
11.528388023376465,688.0
11.533300161361694,658.0
11.540133237838745,671.0
11.544328212738037,653.0
11.548368215560913,675.0
11.553243160247803,674.0
11.557354211807251,675.0
11.561653137207031,675.0
11.567261219024658,659.0
11.575330972671509,681.0
11.582468032836914,673.0
11.586894035339355,682.0
11.590543031692505,680.0
11.59505295753479,661.0
11.598708152770996,688.0
11.60370135307312,683.0
11.608938217163086,662.0
11.61719799041748,680.0
11.625399112701416,652.0
11.633724212646484,675.0
11.640552282333374,659.0
11.645557165145874,662.0
11.650654315948486,660.0
11.655355215072632,633.0
11.662508964538574,630.0
11.668328285217285,650.0
11.673310279846191,643.0
11.679684162139893,626.0
11.687625169754028,655.0
11.692922115325928,658.0
11.69708800315857,657.0
11.70401930809021,661.0
11.71018123626709,659.0
11.714678049087524,651.0
11.72144103050232,689.0
11.72964596748352,703.0
11.734567165374756,714.0
11.73877501487732,723.0
11.742890357971191,716.0
11.747623205184937,708.0
11.75539517402649,694.0
11.761377096176147,676.0
11.76518702507019,638.0
11.769504070281982,652.0
11.773296117782593,625.0
11.779901266098022,649.0
11.784463167190552,651.0
11.789629220962524,656.0
11.794396162033081,636.0
11.798863172531128,661.0
11.804558038711548,655.0
11.809855222702026,659.0
11.81492018699646,655.0
11.820128917694092,663.0
11.824660301208496,658.0
11.83102822303772,659.0
11.838183164596558,660.0
11.84626293182373,656.0
11.851562261581421,649.0
11.856019258499146,652.0
11.863508224487305,633.0
11.87143611907959,644.0
11.87644910812378,654.0
11.880450010299683,646.0
11.884406089782715,625.0
11.889048099517822,657.0
11.896737098693848,643.0
11.904662132263184,674.0
11.910123109817505,678.0
11.914870977401733,680.0
11.919587135314941,678.0
11.923728227615356,701.0
11.92823314666748,702.0
11.93372893333435,676.0
11.94209098815918,693.0
11.949215173721313,689.0
11.954269170761108,669.0
11.95877718925476,634.0
11.966099262237549,650.0
11.971525192260742,644.0
11.975512981414795,637.0
11.982607126235962,617.0
11.987428188323975,645.0
11.991626977920532,646.0
11.996348142623901,649.0
12.000949144363403,651.0
12.008932113647461,657.0
12.015937089920044,655.0
12.021109342575073,659.0
12.02505898475647,654.0
12.030192136764526,646.0
12.034075021743774,665.0
12.0417640209198,666.0
12.049355030059814,664.0
12.054676294326782,645.0
12.059412956237793,670.0
12.063867092132568,664.0
12.068448066711426,673.0
12.0732741355896,652.0
12.08001708984375,676.0
12.084651947021484,677.0
12.089457035064697,683.0
12.096683025360107,684.0
12.101348161697388,686.0
12.106296062469482,667.0
12.113818168640137,677.0
12.121917247772217,671.0
12.12982702255249,669.0
12.134701013565063,648.0
12.139689207077026,672.0
12.147104978561401,656.0
12.15444016456604,673.0
12.159783124923706,674.0
12.164411067962646,672.0
12.171992063522339,676.0
12.180018186569214,682.0
12.188003063201904,698.0
12.193273067474365,701.0
12.1979660987854,682.0
12.205128192901611,700.0
12.210093021392822,668.0
12.215341091156006,687.0
12.219942092895508,682.0
12.224513053894043,675.0
12.228849172592163,682.0
12.233311176300049,660.0
12.238441228866577,678.0
12.243135929107666,685.0
12.247892141342163,691.0
12.25478219985962,692.0
12.259515047073364,690.0
12.266700029373169,690.0
12.271526098251343,691.0
12.276214122772217,686.0
12.28423810005188,677.0
12.291032075881958,682.0
12.29610013961792,673.0
12.299881219863892,675.0
12.305225133895874,687.0
12.309530019760132,682.0
12.316719055175781,679.0
12.321491241455078,684.0
12.326414108276367,684.0
12.330633163452148,669.0
12.338137149810791,682.0
12.343667268753052,675.0
12.348159313201904,643.0
12.355263948440552,660.0
12.360106945037842,631.0
12.365371227264404,648.0
12.37263298034668,650.0
12.38049030303955,649.0
12.388838052749634,640.0
12.396543979644775,659.0
12.401559114456177,654.0
12.406070947647095,631.0
12.413267135620117,650.0
12.418842077255249,631.0
12.42436408996582,657.0
12.429738998413086,664.0
12.433824062347412,689.0
12.442122220993042,710.0
12.449962139129639,726.0
12.454845190048218,714.0
12.459100246429443,742.0
12.46609091758728,730.0
12.47112488746643,713.0
12.47553825378418,682.0
12.482755184173584,675.0
12.487488031387329,652.0
12.491754293441772,632.0
12.497116088867188,628.0
12.501672267913818,628.0
12.506023168563843,628.0
12.510015964508057,636.0
12.51461410522461,638.0
12.52013611793518,640.0
12.524927139282227,656.0
12.530691146850586,660.0
12.535131216049194,667.0
12.539423942565918,675.0
12.5435950756073,664.0
12.547657251358032,688.0
12.55168604850769,665.0
12.556502103805542,692.0
12.56391716003418,684.0
12.572229146957397,700.0
12.579912185668945,700.0
12.584925174713135,699.0
12.589709997177124,703.0
12.597074270248413,695.0
12.602020025253296,695.0
12.606961250305176,693.0
12.611690998077393,695.0
12.615987300872803,691.0
12.620512962341309,688.0
12.624688148498535,700.0
12.629950284957886,702.0
12.63391923904419,696.0
12.641524314880371,705.0
12.646196126937866,705.0
12.650406122207642,679.0
12.654589176177979,708.0
12.659662008285522,710.0
12.66432809829712,712.0
12.668228149414062,709.0
12.67540717124939,690.0
12.682619094848633,713.0
12.689118146896362,710.0
12.69631314277649,690.0
12.702407121658325,712.0
12.707746028900146,686.0
12.713068008422852,707.0
12.718274116516113,701.0
12.72333812713623,694.0
12.730717182159424,682.0
12.739244937896729,675.0
12.747180938720703,674.0
12.755390167236328,673.0
12.760817050933838,655.0
12.766232013702393,680.0
12.771655082702637,662.0
12.776360273361206,692.0
12.78341007232666,671.0
12.788686037063599,705.0
12.79314923286438,708.0
12.800353050231934,708.0
12.80527400970459,712.0
12.810248136520386,715.0
12.814783334732056,711.0
12.821715116500854,701.0
12.827018976211548,702.0
12.831459045410156,686.0
12.8354811668396,684.0
12.840022087097168,673.0
12.844831228256226,660.0
12.849637031555176,664.0
12.854381084442139,657.0
12.858620166778564,628.0
12.8634512424469,656.0
12.867499113082886,655.0
12.875019073486328,653.0
12.880193948745728,656.0
12.88410997390747,664.0
12.891646146774292,663.0
12.896387100219727,671.0
12.901233196258545,669.0
12.90835189819336,654.0
12.912986040115356,672.0
12.917068004608154,655.0
12.921946048736572,697.0
12.925877332687378,709.0
12.933670043945312,713.0
12.93835735321045,695.0
12.943323135375977,682.0
12.950942277908325,687.0
12.958811044692993,673.0
12.96380615234375,637.0
12.968464136123657,653.0
12.973546981811523,625.0
12.98042917251587,651.0
12.985314130783081,657.0
12.993359088897705,647.0
13.000865936279297,661.0
13.008647203445435,647.0
13.01390814781189,679.0
13.01852798461914,679.0
13.025363206863403,689.0
13.03022813796997,689.0
13.034166097640991,671.0
13.041508197784424,689.0
13.046431303024292,665.0
13.050475120544434,687.0
13.054913997650146,681.0
13.059235095977783,687.0
13.066226243972778,665.0
13.071202039718628,682.0
13.075406074523926,654.0
13.079699277877808,677.0
13.083620071411133,681.0
13.088358163833618,677.0
13.092353105545044,686.0
13.097332239151001,686.0
13.101746082305908,695.0
13.109091997146606,695.0
13.116902112960815,673.0
13.121699094772339,696.0
13.126659154891968,702.0
13.131230115890503,704.0
13.13838005065918,704.0
13.14371395111084,696.0
13.14804720878601,695.0
13.15211796760559,689.0
13.156270027160645,670.0
13.160341024398804,694.0
13.167781114578247,692.0
13.175547122955322,694.0
13.180039167404175,693.0
13.184122085571289,693.0
13.188579082489014,670.0
13.19250202178955,695.0
13.197431087493896,674.0
13.202026128768921,689.0
13.208994150161743,661.0
13.213429927825928,690.0
13.218220949172974,677.0
13.22548508644104,689.0
13.230748176574707,692.0
13.234958171844482,686.0
13.24257206916809,677.0
13.250463962554932,692.0
13.255329132080078,694.0
13.260194063186646,697.0
13.267605066299438,695.0
13.275241136550903,678.0
13.279711961746216,690.0
13.283457040786743,684.0
13.287989139556885,656.0
13.292205095291138,677.0
13.296653032302856,673.0
13.30100703239441,663.0
13.308752059936523,663.0
13.314009189605713,656.0
13.318685293197632,660.0
13.3232581615448,654.0
13.327293157577515,661.0
13.335523128509521,658.0
13.340047121047974,661.0
13.344027042388916,670.0
13.348697185516357,657.0
13.355701208114624,692.0
13.360985040664673,696.0
13.365287065505981,715.0
13.370238304138184,715.0
13.37445330619812,721.0
13.380939960479736,711.0
13.385706901550293,692.0
13.39035701751709,662.0
13.397237300872803,673.0
13.402050971984863,669.0
13.409499168395996,660.0
13.417084217071533,647.0
13.421824932098389,667.0
13.426231145858765,668.0
13.433956146240234,673.0
13.438393115997314,675.0
13.442410945892334,685.0
13.446752071380615,682.0
13.450793266296387,687.0
13.45503306388855,679.0
13.459105014801025,681.0
13.46323299407959,660.0
13.467909097671509,673.0
13.475380182266235,671.0
13.480423212051392,664.0
13.484518051147461,672.0
13.491788148880005,662.0
13.496514081954956,644.0
13.500570058822632,647.0
13.504621982574463,658.0
13.508589029312134,660.0
13.513065099716187,641.0
13.517622947692871,673.0
13.522353172302246,677.0
13.527554988861084,670.0
13.532227993011475,689.0
13.53905725479126,688.0
13.543690204620361,691.0
13.55191421508789,687.0
13.559047222137451,683.0
13.56383991241455,660.0
13.5679771900177,682.0
13.575232028961182,676.0
13.579836130142212,677.0
13.583770036697388,676.0
13.58824110031128,677.0
13.592236042022705,673.0
13.59639596939087,667.0
13.60108733177185,668.0
13.605595111846924,667.0
13.610643148422241,662.0
13.61761212348938,665.0
13.622568130493164,661.0
13.627177238464355,666.0
13.632113218307495,665.0
13.636132001876831,661.0
13.640464067459106,669.0
13.64446210861206,650.0
13.649181127548218,682.0
13.655985116958618,680.0
13.661463022232056,682.0
13.665679216384888,686.0
13.672242164611816,659.0
13.676935195922852,679.0
13.68413519859314,672.0
13.68852710723877,671.0
13.693023920059204,667.0
13.700785160064697,656.0
13.706095218658447,668.0
13.711183071136475,653.0
13.715480089187622,669.0
13.72247314453125,655.0
13.727489948272705,673.0
13.732745170593262,672.0
13.739757061004639,671.0
13.747684001922607,655.0
13.756399154663086,677.0
13.764822959899902,682.0
13.773114204406738,687.0
13.781605005264282,688.0
13.789385318756104,688.0
13.794250965118408,683.0
13.798747062683105,683.0
13.80624008178711,673.0
13.813955068588257,671.0
13.81918215751648,667.0
13.82399320602417,663.0
13.831668138504028,663.0
13.83974313735962,644.0
13.847182035446167,657.0
13.852490186691284,659.0
13.860483169555664,640.0
13.867916107177734,660.0
13.872960090637207,644.0
13.876919984817505,663.0
13.884441137313843,668.0
13.889453172683716,671.0
13.893968105316162,680.0
13.901507139205933,689.0
13.909288167953491,682.0
13.914616107940674,717.0
13.919019937515259,723.0
13.926308155059814,708.0
13.931270122528076,718.0
13.935549259185791,708.0
13.943976163864136,708.0
13.951446056365967,696.0
13.95946216583252,689.0
13.964434146881104,680.0
13.968827247619629,678.0
13.97354531288147,674.0
13.977803945541382,668.0
13.982479095458984,659.0
13.989589929580688,648.0
13.997929334640503,649.0
14.006675243377686,644.0
14.015055179595947,635.0
14.019905090332031,614.0
14.025047063827515,639.0
14.029953002929688,642.0
14.03455400466919,634.0
14.039554119110107,655.0
14.043919086456299,655.0
14.050827026367188,656.0
14.055701971054077,661.0
14.05970311164856,672.0
14.064738988876343,682.0
14.068764209747314,688.0
14.07679009437561,713.0
14.08491325378418,701.0
14.092945098876953,721.0
14.098371028900146,715.0
14.10289716720581,683.0
14.108137130737305,691.0
14.115002155303955,675.0
14.119726181030273,681.0
14.125063180923462,654.0
14.129874229431152,668.0
14.134325981140137,664.0
14.139920234680176,666.0
14.144468307495117,658.0
14.148998260498047,659.0
14.153044939041138,663.0
14.157397031784058,664.0
14.161463022232056,672.0
14.166677951812744,669.0
14.171902179718018,672.0
14.176549196243286,677.0
14.18240213394165,677.0
14.189940214157104,681.0
14.195276975631714,681.0
14.199574947357178,659.0
14.206789016723633,684.0
14.211616039276123,664.0
14.216740131378174,688.0
14.221655130386353,671.0
14.226692199707031,690.0
14.235732316970825,664.0
14.243134260177612,692.0
14.248154163360596,682.0
14.252862215042114,699.0
14.257325172424316,678.0
14.261368036270142,702.0
14.26614499092102,704.0
14.27190613746643,680.0
14.276494026184082,697.0
14.282881021499634,704.0
14.290767192840576,687.0
14.298496961593628,698.0
14.306655883789062,696.0
14.314913034439087,695.0
14.320282220840454,692.0
14.325038194656372,689.0
14.332009315490723,695.0
14.340251207351685,700.0
14.34830617904663,701.0
14.353222131729126,701.0
14.357612133026123,688.0
14.361554145812988,702.0
14.366393089294434,699.0
14.37181830406189,699.0
14.376346111297607,705.0
14.380894184112549,703.0
14.384972095489502,697.0
14.390250205993652,693.0
14.394532203674316,666.0
14.402751207351685,690.0
14.410210132598877,686.0
14.418105125427246,665.0
14.423184156417847,679.0
14.427870273590088,650.0
14.432245254516602,673.0
14.436681270599365,665.0
14.441030263900757,679.0
14.445224285125732,679.0
14.450571060180664,685.0
14.455893993377686,685.0
14.460117101669312,683.0
14.464553117752075,670.0
14.469558000564575,694.0
14.474167108535767,697.0
14.481551170349121,680.0
14.48699426651001,716.0
14.492043018341064,719.0
14.4967942237854,691.0
14.501090049743652,716.0
14.505247116088867,699.0
14.510046243667603,683.0
14.51483702659607,667.0
14.51970911026001,631.0
14.527737140655518,657.0
14.534760236740112,654.0
14.540175199508667,650.0
14.544388055801392,639.0
14.551952123641968,653.0
14.560203075408936,646.0
14.565304040908813,651.0
14.569482326507568,649.0
14.576816082000732,643.0
14.581282138824463,656.0
14.585957050323486,654.0
14.590376138687134,662.0
14.59492015838623,662.0
14.599179029464722,645.0
14.603151082992554,676.0
14.608131170272827,661.0
14.615429162979126,672.0
14.620258092880249,673.0
14.625324010848999,693.0
14.632298231124878,711.0
14.640095233917236,698.0
14.645423173904419,724.0
14.64974308013916,724.0
14.65680193901062,708.0
14.661588907241821,665.0
14.666367292404175,678.0
14.673164129257202,670.0
14.6789071559906,665.0
14.683104038238525,660.0
14.690580129623413,662.0
14.698293209075928,640.0
14.70374608039856,665.0
14.708856105804443,665.0
14.715987205505371,672.0
14.721625089645386,668.0
14.726027011871338,649.0
14.73068118095398,672.0
14.735074043273926,676.0
14.73996901512146,676.0
14.74384617805481,665.0
14.751577138900757,660.0
14.756315231323242,677.0
14.76010012626648,685.0
14.765137195587158,665.0
14.770380973815918,688.0
14.774794340133667,687.0
14.781888961791992,690.0
14.787091255187988,703.0
14.791192054748535,708.0
14.795398235321045,703.0
14.800018072128296,697.0
14.807516098022461,695.0
14.815162181854248,693.0
14.819719076156616,691.0
14.827085018157959,684.0
14.83252501487732,687.0
14.840124130249023,684.0
14.845344066619873,669.0
14.850004196166992,684.0
14.85717511177063,676.0
14.862061023712158,669.0
14.866140127182007,679.0
14.870773315429688,673.0
14.875434160232544,648.0
14.882004261016846,664.0
14.88727593421936,666.0
14.892353057861328,642.0
14.896721124649048,664.0
14.900690078735352,664.0
14.905371189117432,670.0
14.909414052963257,670.0
14.913883209228516,660.0
14.918047189712524,671.0
14.922321081161499,654.0
14.927020072937012,675.0
14.931392908096313,670.0
14.93683409690857,655.0
14.941627025604248,690.0
14.94865107536316,686.0
14.953732013702393,667.0
14.958474159240723,696.0
14.965503215789795,687.0
14.973917245864868,692.0
14.981899976730347,685.0
14.986998081207275,677.0
14.991243124008179,679.0
14.999078035354614,672.0
15.007217168807983,654.0
15.015490055084229,668.0
15.020852327346802,665.0
15.025758266448975,663.0
15.03073501586914,659.0
15.035343170166016,643.0
15.04062008857727,659.0
15.044867992401123,659.0
15.049401998519897,669.0
15.053418159484863,675.0
15.057774066925049,676.0
15.061853170394897,675.0
15.06974196434021,682.0
15.078143119812012,684.0
15.08572793006897,686.0
15.093412160873413,692.0
15.098294973373413,695.0
15.102396249771118,697.0
15.109737157821655,697.0
15.11411714553833,699.0
15.11849594116211,693.0
15.123372077941895,690.0
15.128032922744751,684.0
15.136304140090942,681.0
15.143692970275879,649.0
15.148895978927612,668.0
15.153461933135986,659.0
15.16147518157959,656.0
15.168773174285889,661.0
15.173811197280884,667.0
15.178668022155762,675.0
15.183407068252563,675.0
15.19058609008789,685.0
15.195610046386719,699.0
15.20050311088562,685.0
15.207335233688354,682.0
15.215776920318604,689.0
15.223945140838623,690.0
15.232172966003418,706.0
15.237153053283691,685.0
15.242561101913452,720.0
15.247220277786255,691.0
15.25176215171814,700.0
15.256474018096924,685.0
15.26158618927002,668.0
15.269768238067627,627.0
15.27743411064148,612.0
15.28557300567627,634.0
15.290343284606934,622.0
15.294732093811035,596.0
15.302703142166138,612.0
15.311025142669678,613.0
15.31867790222168,623.0
15.323779106140137,622.0
15.328019142150879,633.0
15.335668325424194,638.0
15.340435266494751,647.0
15.34467601776123,659.0
15.352472066879272,659.0
15.360624074935913,673.0
15.365549087524414,650.0
15.370229244232178,674.0
15.37532901763916,663.0
15.38251519203186,677.0
15.390682220458984,665.0
15.396268129348755,694.0
15.401018142700195,704.0
15.408040285110474,698.0
15.415533065795898,692.0
15.424655199050903,677.0
15.439789056777954,659.0
15.446393013000488,651.0
15.4511079788208,614.0
15.456870079040527,626.0
15.461045265197754,620.0
15.468877077102661,616.0
15.473886251449585,616.0
15.478957176208496,595.0
15.483463287353516,629.0
15.491122245788574,605.0
15.49902892112732,638.0
15.504096984863281,639.0
15.50876522064209,650.0
15.51639699935913,656.0
15.523746967315674,634.0
