time,emg
0.29349279403686523,547.0
0.3004496097564697,544.0
0.3059508800506592,531.0
0.314410924911499,551.0
0.3225688934326172,549.0
0.33332085609436035,559.0
0.3387746810913086,525.0
0.34476590156555176,538.0
0.3523738384246826,557.0
0.3582267761230469,570.0
0.36281871795654297,576.0
0.37083959579467773,569.0
0.37618088722229004,568.0
0.3814537525177002,561.0
0.3891408443450928,564.0
0.3975718021392822,559.0
0.40572476387023926,571.0
0.41077661514282227,532.0
0.41896677017211914,556.0
0.42447686195373535,547.0
0.4302787780761719,545.0
0.43543291091918945,524.0
0.4441390037536621,552.0
0.4522848129272461,516.0
0.4615328311920166,561.0
0.4676086902618408,542.0
0.4731917381286621,560.0
0.4810488224029541,563.0
0.4891788959503174,571.0
0.4966578483581543,575.0
0.5014636516571045,574.0
0.5059058666229248,583.0
0.5134258270263672,583.0
0.5182228088378906,569.0
0.5225720405578613,562.0
0.5300858020782471,564.0
0.5349926948547363,564.0
0.5392577648162842,566.0
0.5465106964111328,562.0
0.55141282081604,560.0
0.5556507110595703,558.0
0.5601677894592285,567.0
0.564354658126831,570.0
0.5715577602386475,576.0
0.5762207508087158,572.0
0.5804386138916016,568.0
0.5849196910858154,566.0
0.5891857147216797,584.0
0.5966057777404785,579.0
0.60158371925354,569.0
0.6059877872467041,560.0
0.6139998435974121,535.0
0.6194989681243896,560.0
0.6268157958984375,582.0
0.630964994430542,558.0
0.6376388072967529,535.0
0.6438798904418945,554.0
0.6483256816864014,558.0
0.6547458171844482,573.0
0.6587808132171631,560.0
0.6625478267669678,576.0
0.668785810470581,570.0
0.6732168197631836,563.0
0.679344892501831,574.0
0.6853768825531006,587.0
0.6898787021636963,575.0
0.6961758136749268,576.0
0.7002737522125244,566.0
0.7039628028869629,553.0
0.7099857330322266,563.0
0.7141978740692139,563.0
0.7212707996368408,564.0
0.7259209156036377,548.0
0.7298717498779297,558.0
0.734440803527832,559.0
0.7387597560882568,577.0
0.7428207397460938,583.0
0.746823787689209,562.0
0.7532987594604492,584.0
0.7603757381439209,576.0
0.7651767730712891,580.0
0.7691357135772705,582.0
0.7727108001708984,586.0
0.7795088291168213,565.0
0.7836956977844238,552.0
0.78749680519104,554.0
0.7915148735046387,563.0
0.7952919006347656,552.0
0.7990930080413818,563.0
0.8030269145965576,525.0
0.8068768978118896,543.0
0.8132779598236084,560.0
0.8174200057983398,570.0
0.8211886882781982,575.0
0.8273506164550781,561.0
0.8318257331848145,553.0
0.8360238075256348,559.0
0.8398427963256836,559.0
0.8437769412994385,584.0
0.8474128246307373,568.0
0.8514618873596191,556.0
0.8552048206329346,530.0
0.8592197895050049,544.0
0.8629896640777588,556.0
0.8693239688873291,530.0
0.8738448619842529,549.0
0.8777279853820801,529.0
0.8817288875579834,559.0
0.8884177207946777,554.0
0.892852783203125,557.0
0.8966288566589355,577.0
0.9006228446960449,574.0
0.9043548107147217,579.0
0.9105930328369141,551.0
0.9150846004486084,579.0
0.9215948581695557,576.0
0.9257407188415527,543.0
0.9295186996459961,559.0
0.9357337951660156,562.0
0.940147876739502,560.0
0.9464409351348877,539.0
0.9505889415740967,554.0
0.954291820526123,551.0
0.9604537487030029,551.0
0.9648146629333496,557.0
0.9712858200073242,561.0
0.9774847030639648,567.0
0.9818837642669678,543.0
0.9881057739257812,555.0
0.9924206733703613,572.0
0.9964227676391602,569.0
1.001105785369873,593.0
1.005441665649414,585.0
1.0102899074554443,562.0
1.0140206813812256,556.0
1.0182058811187744,576.0
1.0219089984893799,562.0
1.0262279510498047,562.0
1.0300707817077637,552.0
1.034080982208252,558.0
1.0378167629241943,558.0
1.0418457984924316,551.0
1.0455927848815918,577.0
1.0521337985992432,581.0
1.056607961654663,572.0
1.0635707378387451,566.0
1.068591833114624,580.0
1.0726637840270996,601.0
1.0808167457580566,608.0
1.0887959003448486,569.0
1.0936546325683594,566.0
1.0979928970336914,573.0
1.1058528423309326,582.0
1.1138107776641846,577.0
1.1186678409576416,580.0
1.1226906776428223,572.0
1.130875825881958,577.0
1.1387948989868164,548.0
1.1435627937316895,591.0
1.1480247974395752,588.0
1.1551196575164795,587.0
1.1592848300933838,588.0
1.1629908084869385,592.0
1.169428825378418,588.0
1.1738157272338867,594.0
1.177980899810791,615.0
1.1817479133605957,579.0
1.1857388019561768,561.0
1.189382791519165,574.0
1.1966729164123535,584.0
1.2015318870544434,580.0
1.2051856517791748,570.0
1.2090649604797363,572.0
1.212737798690796,574.0
1.219430923461914,586.0
1.2238128185272217,564.0
1.2282147407531738,592.0
1.231935977935791,598.0
1.2357487678527832,592.0
1.2393147945404053,608.0
1.2461538314819336,603.0
1.2526447772979736,587.0
1.257110595703125,600.0
1.2609858512878418,591.0
1.2647998332977295,585.0
1.2718298435211182,586.0
1.2765307426452637,584.0
1.2802486419677734,588.0
1.2842249870300293,585.0
1.2880237102508545,584.0
1.2923336029052734,581.0
1.2961008548736572,593.0
1.3025038242340088,604.0
1.3070929050445557,600.0
1.3115098476409912,596.0
1.3152146339416504,596.0
1.3190317153930664,602.0
1.3225898742675781,591.0
1.3295066356658936,607.0
1.33408784866333,604.0
1.3377878665924072,588.0
1.3441526889801025,580.0
1.3484058380126953,590.0
1.352564811706543,573.0
1.3563487529754639,576.0
1.3633837699890137,582.0
1.3695869445800781,560.0
1.374086856842041,582.0
1.3779199123382568,591.0
1.3816518783569336,594.0
1.3855867385864258,584.0
1.389244794845581,598.0
1.3961207866668701,594.0
1.4002249240875244,592.0
1.4039647579193115,577.0
1.4098427295684814,593.0
1.4138758182525635,592.0
1.4179277420043945,580.0
1.4215888977050781,575.0
1.425428867340088,583.0
1.429076910018921,584.0
1.4349749088287354,590.0
1.4390027523040771,578.0
1.4430127143859863,571.0
1.4466140270233154,586.0
1.4524507522583008,594.0
1.4568266868591309,598.0
1.4604825973510742,622.0
1.4639828205108643,600.0
1.467843770980835,591.0
1.471369981765747,597.0
1.4753737449645996,620.0
1.4790499210357666,612.0
1.484987735748291,589.0
1.4893498420715332,598.0
1.496201992034912,602.0
1.502450942993164,598.0
1.5068066120147705,597.0
1.5105929374694824,604.0
1.514129877090454,593.0
1.5185306072235107,594.0
1.52215576171875,600.0
1.5266118049621582,576.0
1.5302207469940186,603.0
1.5341076850891113,591.0
1.537806749343872,604.0
1.5442476272583008,610.0
1.548675775527954,617.0
1.5530428886413574,614.0
1.5567817687988281,578.0
1.5606107711791992,592.0
1.5641505718231201,596.0
1.5687017440795898,570.0
1.5723047256469727,600.0
1.5777127742767334,600.0
1.5814399719238281,595.0
1.5888397693634033,599.0
1.5938029289245605,599.0
1.5982117652893066,601.0
1.6060385704040527,611.0
1.6138627529144287,620.0
1.6182188987731934,596.0
1.6218559741973877,613.0
1.62680983543396,608.0
1.6313526630401611,630.0
1.6386778354644775,612.0
1.6436657905578613,580.0
1.6474239826202393,595.0
1.6515498161315918,598.0
1.6552069187164307,600.0
1.6603419780731201,592.0
1.6639728546142578,600.0
1.6684439182281494,583.0
1.6720976829528809,591.0
1.6771628856658936,600.0
1.6816446781158447,587.0
1.6861560344696045,611.0
1.690584659576416,608.0
1.6944828033447266,605.0
1.698232650756836,601.0
1.7033836841583252,605.0
1.7107348442077637,620.0
1.715897798538208,591.0
1.7204039096832275,613.0
1.724118709564209,597.0
1.7287375926971436,578.0
1.7360718250274658,596.0
1.7404727935791016,595.0
1.744802713394165,589.0
1.7485377788543701,568.0
1.7523739337921143,592.0
1.7559847831726074,611.0
1.763145923614502,607.0
1.7671916484832764,618.0
1.7708947658538818,595.0
1.77740478515625,613.0
1.7819199562072754,615.0
1.7861356735229492,622.0
1.789928913116455,628.0
1.7937936782836914,615.0
1.7973706722259521,608.0
1.8026459217071533,607.0
1.8071308135986328,605.0
1.8115098476409912,586.0
1.8152709007263184,605.0
1.8197648525238037,606.0
1.8241627216339111,602.0
1.829148769378662,599.0
1.8342177867889404,614.0
1.838512897491455,619.0
1.8438856601715088,614.0
1.8475067615509033,610.0
1.8552329540252686,615.0
1.8593168258666992,605.0
1.86301589012146,619.0
1.8680026531219482,642.0
1.8722858428955078,602.0
1.877701759338379,561.0
1.881516695022583,612.0
1.8854188919067383,585.0
1.8890156745910645,589.0
1.8940777778625488,600.0
1.8977127075195312,591.0
1.904571771621704,608.0
1.9110519886016846,616.0
1.9156677722930908,603.0
1.919646978378296,622.0
1.9235079288482666,623.0
1.9273936748504639,618.0
1.9310307502746582,629.0
1.9376237392425537,625.0
1.9439167976379395,620.0
1.9483089447021484,601.0
1.9547209739685059,593.0
1.9588308334350586,605.0
1.9626057147979736,604.0
1.968923807144165,603.0
1.973310947418213,577.0
1.979825735092163,606.0
1.9838898181915283,580.0
1.9877307415008545,596.0
1.9916977882385254,607.0
1.9953746795654297,607.0
1.9991166591644287,629.0
2.0033726692199707,622.0
2.007200002670288,609.0
2.011420726776123,612.0
2.0152337551116943,616.0
2.021824836730957,628.0
2.0261518955230713,616.0
2.029855966567993,610.0
2.033759832382202,603.0
2.0374720096588135,604.0
2.0437686443328857,610.0
2.0482029914855957,573.0
2.0549168586730957,573.0
2.05956768989563,580.0
2.063262939453125,587.0
2.0671567916870117,615.0
2.070863723754883,627.0
2.077265739440918,615.0
2.0817489624023438,615.0
2.0859436988830566,613.0
2.089744806289673,592.0
2.0965356826782227,605.0
2.1009106636047363,633.0
2.104595899581909,591.0
2.110872745513916,609.0
2.115278720855713,606.0
2.1192188262939453,602.0
2.1230416297912598,605.0
2.129624843597412,609.0
2.1337180137634277,604.0
2.1373980045318604,593.0
2.1436808109283447,612.0
2.1481709480285645,616.0
2.1521077156066895,617.0
2.155669927597046,620.0
2.159857749938965,615.0
2.163532018661499,614.0
2.167682647705078,609.0
2.1713438034057617,593.0
2.175288677215576,613.0
2.178903818130493,585.0
2.1850266456604004,592.0
2.1891589164733887,596.0
2.196584939956665,616.0
2.200779914855957,607.0
2.2044758796691895,599.0
2.208366632461548,594.0
2.212075710296631,605.0
2.215810775756836,614.0
2.220477819442749,614.0
2.2273149490356445,603.0
2.2317728996276855,626.0
2.238848924636841,621.0
2.243076801300049,625.0
2.2466228008270264,623.0
2.250427722930908,636.0
2.254025936126709,625.0
2.2600958347320557,611.0
2.264037847518921,604.0
2.2682607173919678,617.0
2.2718238830566406,594.0
2.2760958671569824,585.0
2.2799696922302246,602.0
2.2840518951416016,608.0
2.2876718044281006,597.0
2.292320966720581,604.0
2.296658754348755,611.0
2.301270008087158,612.0
2.3054966926574707,618.0
2.3103907108306885,630.0
2.3147709369659424,608.0
2.319441795349121,604.0
2.3237948417663574,599.0
2.3284049034118652,617.0
2.3352067470550537,584.0
2.3401846885681152,584.0
2.344155788421631,611.0
2.347667932510376,597.0
2.3550169467926025,597.0
2.359635829925537,578.0
2.3632547855377197,600.0
2.368086576461792,621.0
2.3723597526550293,625.0
2.3769936561584473,623.0
2.3813986778259277,624.0
2.3885347843170166,628.0
2.3925979137420654,629.0
2.396218776702881,628.0
2.4007468223571777,639.0
2.405064821243286,624.0
2.409672975540161,618.0
2.4139316082000732,622.0
2.4188218116760254,604.0
2.4232418537139893,601.0
2.4305367469787598,578.0
2.4352457523345947,602.0
2.439664840698242,600.0
2.447075843811035,593.0
2.4519898891448975,601.0
2.4556777477264404,620.0
2.459906816482544,612.0
2.463543653488159,615.0
2.46775484085083,624.0
2.471397876739502,623.0
2.475266695022583,626.0
2.479583978652954,633.0
2.484283685684204,628.0
2.4886038303375244,617.0
2.4926257133483887,584.0
2.496250867843628,611.0
2.501011848449707,591.0
2.5052297115325928,614.0
2.510009765625,610.0
2.514209032058716,603.0
2.5212607383728027,609.0
2.5259597301483154,616.0
2.529658794403076,619.0
2.5347177982330322,621.0
2.539106607437134,625.0
2.544416904449463,629.0
2.5487117767333984,621.0
2.5532827377319336,624.0
2.5606069564819336,636.0
2.5650527477264404,622.0
2.5700809955596924,610.0
2.574604034423828,606.0
2.5789527893066406,614.0
2.585484743118286,611.0
2.5903377532958984,605.0
2.59511661529541,601.0
2.5992209911346436,596.0
2.6031579971313477,610.0
2.6069018840789795,633.0
2.610743761062622,619.0
2.6142587661743164,588.0
2.6219499111175537,592.0
2.6264126300811768,594.0
2.630129814147949,608.0
2.634065866470337,628.0
2.637723684310913,611.0
2.6440677642822266,617.0
2.6484148502349854,619.0
2.6527388095855713,612.0
2.6564717292785645,561.0
2.663207769393921,600.0
2.667736768722534,614.0
2.671381950378418,608.0
2.675346851348877,601.0
2.679011821746826,618.0
2.6855196952819824,626.0
2.6899337768554688,624.0
2.6966536045074463,614.0
2.700626850128174,627.0
2.704563856124878,621.0
2.710944890975952,624.0
2.715399742126465,616.0
2.7197985649108887,625.0
2.7235047817230225,599.0
2.7273998260498047,621.0
2.730886697769165,622.0
2.7381036281585693,611.0
2.7426140308380127,617.0
2.7463207244873047,617.0
2.7501566410064697,609.0
2.7539427280426025,617.0
2.759955883026123,598.0
2.7640886306762695,629.0
2.7685277462005615,615.0
2.772054672241211,601.0
2.7759077548980713,602.0
2.7795629501342773,624.0
2.783374786376953,621.0
2.78715181350708,628.0
2.7936317920684814,624.0
2.7976717948913574,620.0
2.804931640625,615.0
2.8094427585601807,616.0
2.8132147789001465,605.0
2.817659854888916,603.0
2.8217318058013916,609.0
2.8259358406066895,611.0
2.8296446800231934,596.0
2.834625720977783,632.0
2.8383548259735107,638.0
2.843080759048462,633.0
2.8466248512268066,635.0
2.852613687515259,607.0
2.856719732284546,619.0
2.8609557151794434,649.0
2.8649609088897705,626.0
2.8692667484283447,635.0
2.873851776123047,607.0
2.8795018196105957,625.0
2.884929656982422,624.0
2.890331745147705,620.0
2.8952887058258057,621.0
2.8996169567108154,595.0
2.904592752456665,593.0
2.9099137783050537,633.0
2.9147138595581055,611.0
2.921687602996826,644.0
2.9258577823638916,636.0
2.929943799972534,642.0
2.933858633041382,632.0
2.9381539821624756,644.0
2.942110776901245,641.0
2.9462599754333496,625.0
2.950363874435425,620.0
2.954636812210083,615.0
2.9606738090515137,619.0
2.9655838012695312,614.0
2.9697117805480957,611.0
2.973541736602783,591.0
2.977616786956787,606.0
2.981334686279297,597.0
2.987804889678955,627.0
2.992004871368408,611.0
2.995717763900757,627.0
3.0020039081573486,633.0
3.0065085887908936,637.0
3.0130157470703125,635.0
3.017214775085449,615.0
3.0209097862243652,618.0
3.0272397994995117,635.0
3.0316827297210693,649.0
3.035679817199707,613.0
3.0392556190490723,605.0
3.046693801879883,619.0
3.051008939743042,629.0
3.0546836853027344,619.0
3.0586397647857666,621.0
3.0623176097869873,642.0
3.0684287548065186,601.0
3.072553873062134,634.0
3.0794198513031006,637.0
3.0856518745422363,642.0
3.0900778770446777,636.0
3.096597909927368,651.0
3.100792646408081,630.0
3.104531764984131,646.0
3.1084868907928467,609.0
3.112200975418091,631.0
3.1183319091796875,627.0
3.1224987506866455,631.0
3.129213809967041,605.0
3.135392904281616,621.0
3.1397907733917236,594.0
3.14631986618042,623.0
3.1505699157714844,633.0
3.154406785964966,637.0
3.160653829574585,632.0
3.1651418209075928,639.0
3.169173002243042,643.0
3.1730146408081055,633.0
3.179595947265625,641.0
3.1839449405670166,628.0
3.1876909732818604,638.0
3.1916496753692627,628.0
3.195358991622925,623.0
3.1991758346557617,618.0
3.203035831451416,617.0
3.2068066596984863,602.0
3.2130298614501953,620.0
3.217162847518921,594.0
3.220885992050171,607.0
3.2270278930664062,619.0
3.231421947479248,628.0
3.23779296875,624.0
3.241914749145508,624.0
3.2456467151641846,631.0
3.25173282623291,589.0
3.255702018737793,635.0
3.2599308490753174,631.0
3.2637276649475098,610.0
3.2681517601013184,593.0
3.2718708515167236,616.0
3.275874614715576,617.0
3.279533624649048,614.0
3.2835607528686523,591.0
3.2873117923736572,613.0
3.2935826778411865,614.0
3.2982017993927,590.0
3.3021087646484375,624.0
3.3057186603546143,631.0
3.3097589015960693,627.0
3.3135318756103516,618.0
3.3175055980682373,630.0
3.321213960647583,632.0
3.327239751815796,642.0
3.331692695617676,644.0
3.3356149196624756,626.0
3.3392865657806396,622.0
3.3461408615112305,623.0
3.350529670715332,621.0
3.3542168140411377,621.0
3.3606510162353516,598.0
3.3650288581848145,598.0
3.36911678314209,617.0
3.37270188331604,632.0
3.379546880722046,636.0
3.3857107162475586,637.0
3.3901267051696777,640.0
3.394038677215576,642.0
3.3976218700408936,633.0
3.4042627811431885,638.0
3.410519599914551,646.0
3.4150137901306152,640.0
3.4188787937164307,635.0
3.4224886894226074,620.0
3.4293129444122314,599.0
3.4338276386260986,628.0
3.4375360012054443,629.0
3.4414408206939697,622.0
3.4451537132263184,625.0
3.448918581008911,621.0
3.4527807235717773,617.0
3.456535816192627,632.0
3.46311092376709,635.0
3.4671647548675537,641.0
3.4708478450775146,652.0
3.4770009517669678,642.0
3.481466770172119,613.0
3.4878127574920654,614.0
3.4918017387390137,622.0
3.4954779148101807,632.0
3.50163197517395,633.0
3.505722761154175,641.0
3.510056972503662,622.0
3.5137016773223877,621.0
3.517613649368286,614.0
3.5212368965148926,613.0
3.527265787124634,631.0
3.5316946506500244,652.0
3.5379366874694824,620.0
3.5445587635040283,614.0
3.548886775970459,626.0
3.5529537200927734,620.0
3.556696653366089,628.0
3.5632598400115967,655.0
3.567687749862671,656.0
3.571220874786377,649.0
3.575073003768921,648.0
3.578687906265259,637.0
3.5823376178741455,641.0
3.587066888809204,646.0
3.592399835586548,644.0
3.597116708755493,635.0
3.602487802505493,641.0
3.6071937084198,639.0
3.6124038696289062,621.0
3.6176986694335938,630.0
3.6220176219940186,655.0
3.6268727779388428,659.0
3.631410837173462,654.0
3.638868808746338,659.0
3.6429219245910645,643.0
3.64660382270813,663.0
3.650479793548584,647.0
3.654254674911499,648.0
3.6605236530303955,642.0
3.6648519039154053,642.0
3.6716628074645996,624.0
3.675788640975952,643.0
3.679471731185913,631.0
3.6833558082580566,642.0
3.6870477199554443,648.0
3.6907598972320557,646.0
3.695499897003174,651.0
3.7024197578430176,660.0
3.7068347930908203,655.0
3.713437795639038,651.0
3.7177278995513916,662.0
3.721529722213745,657.0
3.7254488468170166,644.0
3.729132652282715,644.0
3.735445976257324,636.0
3.739860773086548,642.0
3.7462966442108154,610.0
3.750354766845703,638.0
3.75404691696167,642.0
3.7605128288269043,630.0
3.7648487091064453,640.0
3.77129864692688,652.0
3.7753047943115234,653.0
3.7789366245269775,654.0
3.7852327823638916,654.0
3.789268970489502,655.0
3.7956948280334473,660.0
3.801957845687866,671.0
3.8059067726135254,658.0
3.8125357627868652,642.0
3.8187777996063232,647.0
3.8232407569885254,642.0
3.8298277854919434,647.0
3.833897829055786,657.0
3.837596893310547,636.0
3.843862771987915,631.0
3.8482348918914795,643.0
3.8544118404388428,660.0
3.858470916748047,660.0
3.8621318340301514,654.0
3.868403911590576,653.0
3.8725087642669678,657.0
3.879135847091675,655.0
3.885662794113159,660.0
3.89013671875,663.0
3.89406681060791,654.0
3.897690773010254,646.0
3.9046027660369873,644.0
3.90879487991333,639.0
3.912456750869751,641.0
3.9186697006225586,645.0
3.922657012939453,642.0
3.9294369220733643,639.0
3.9357168674468994,642.0
3.9401028156280518,649.0
3.944002628326416,656.0
3.9475347995758057,658.0
3.954075813293457,659.0
3.960242748260498,657.0
3.964207887649536,649.0
3.971313714981079,663.0
3.9753899574279785,658.0
3.9790198802948,641.0
3.985316753387451,668.0
3.9898018836975098,647.0
3.9962339401245117,627.0
4.000353574752808,639.0
4.004094839096069,639.0
4.010344743728638,630.0
4.014806032180786,629.0
4.018965005874634,641.0
4.022524833679199,652.0
4.029317855834961,653.0
4.033763647079468,654.0
4.037433862686157,634.0
4.041294813156128,640.0
4.045005798339844,658.0
4.048766851425171,657.0
4.05261492729187,666.0
4.056387662887573,666.0
4.061015605926514,660.0
4.064908742904663,647.0
4.071366786956787,647.0
4.075541973114014,636.0
4.0792458057403564,658.0
4.0855748653411865,655.0
4.090008735656738,652.0
4.094216823577881,677.0
4.0980658531188965,674.0
4.104694604873657,673.0
4.108964681625366,676.0
4.112586975097656,675.0
4.118906736373901,673.0
4.123297691345215,679.0
4.1272876262664795,693.0
4.1308207511901855,684.0
4.137728929519653,668.0
4.143832683563232,664.0
4.148146867752075,644.0
4.151934862136841,647.0
4.155459642410278,663.0
4.159276723861694,658.0
4.162902593612671,640.0
4.168961763381958,665.0
4.173348665237427,674.0
4.177311897277832,679.0
4.180844783782959,681.0
4.1876537799835205,660.0
4.193955659866333,661.0
4.198393821716309,680.0
4.2022929191589355,695.0
4.20583176612854,698.0
4.212631702423096,683.0
4.218695878982544,676.0
4.22309684753418,671.0
4.229637861251831,661.0
4.233656644821167,668.0
4.237315654754639,655.0
4.243613958358765,646.0
4.247723579406738,650.0
4.254514932632446,673.0
4.25876784324646,683.0
4.262459754943848,684.0
4.266374826431274,682.0
4.2700817584991455,675.0
4.273946762084961,660.0
4.27796196937561,675.0
4.281692743301392,691.0
4.2858686447143555,689.0
4.289723873138428,674.0
4.29620885848999,669.0
4.300215721130371,671.0
4.303880929946899,656.0
4.310076713562012,677.0
4.314077854156494,670.0
4.318410873413086,653.0
4.321998834609985,654.0
4.325828790664673,684.0
4.329479932785034,696.0
4.33553671836853,689.0
4.339939832687378,695.0
4.346210718154907,674.0
4.352507829666138,704.0
4.356864929199219,709.0
4.360637903213501,719.0
4.364173650741577,709.0
4.370928764343262,695.0
4.376867771148682,688.0
4.380949974060059,693.0
4.38777494430542,669.0
4.391862630844116,678.0
4.395532608032227,660.0
4.401598930358887,676.0
4.405699729919434,694.0
4.409857749938965,690.0
4.413468837738037,653.0
4.417482852935791,672.0
4.421123743057251,688.0
4.4271628856658936,698.0
4.431529998779297,688.0
4.437862873077393,701.0
4.444021940231323,705.0
4.4482879638671875,688.0
4.4546637535095215,684.0
4.458735704421997,659.0
4.4624388217926025,671.0
4.4686198234558105,658.0
4.473053932189941,681.0
4.479474782943726,681.0
4.4835100173950195,645.0
4.487321853637695,679.0
4.493513822555542,688.0
4.49760890007019,690.0
4.501926898956299,689.0
4.505493879318237,671.0
4.509557008743286,691.0
4.5131518840789795,690.0
4.5190956592559814,673.0
4.523401975631714,694.0
4.527307987213135,680.0
4.5308918952941895,679.0
4.5374436378479,677.0
4.5436248779296875,674.0
4.5480897426605225,671.0
4.554373741149902,674.0
4.560564994812012,652.0
4.564926862716675,655.0
4.57149076461792,684.0
4.575511693954468,691.0
4.579185724258423,692.0
4.585355997085571,701.0
4.589823961257935,692.0
4.593691825866699,685.0
4.59729266166687,687.0
4.601621866226196,703.0
4.605269908905029,690.0
4.609133720397949,681.0
4.612820863723755,678.0
4.616725921630859,686.0
4.62040376663208,679.0
4.62412166595459,676.0
4.627908706665039,681.0
4.631638765335083,679.0
4.637776851654053,688.0
4.641802787780762,693.0
4.645382881164551,695.0
4.649050712585449,696.0
4.652818918228149,700.0
4.656490802764893,701.0
4.660313844680786,670.0
4.663944959640503,708.0
4.668022632598877,708.0
4.6717307567596436,687.0
4.676506757736206,685.0
4.680760622024536,683.0
4.68555474281311,689.0
4.690051794052124,679.0
4.697173833847046,661.0
4.701958894729614,664.0
4.706423759460449,686.0
4.71357798576355,694.0
4.717995643615723,700.0
4.721651792526245,707.0
4.725545883178711,715.0
4.7291717529296875,710.0
4.735193729400635,709.0
4.739295959472656,702.0
4.745966672897339,678.0
4.752269744873047,708.0
4.756664752960205,702.0
4.762774705886841,692.0
4.768939733505249,667.0
4.773537635803223,662.0
4.777874946594238,663.0
4.782073736190796,662.0
4.7864298820495605,616.0
4.790499687194824,635.0
4.794841766357422,645.0
4.798958778381348,642.0
4.803261756896973,654.0
4.8073296546936035,665.0
4.811612844467163,682.0
4.815805912017822,624.0
4.819879770278931,639.0
4.8236448764801025,663.0
4.82743501663208,665.0
4.8309996128082275,663.0
4.838337659835815,666.0
4.842455625534058,656.0
4.846148729324341,657.0
4.850777864456177,671.0
4.854360818862915,663.0
4.858909845352173,661.0
4.863217830657959,655.0
4.867922782897949,680.0
4.87158989906311,679.0
4.876130819320679,653.0
4.879702568054199,688.0
4.884185791015625,687.0
4.888538837432861,677.0
4.893126726150513,667.0
4.8973917961120605,695.0
4.901939868927002,679.0
4.906418800354004,681.0
4.913587808609009,661.0
4.9182448387146,664.0
4.922520637512207,648.0
4.930112838745117,670.0
4.935081958770752,663.0
4.939342737197876,662.0
4.94681191444397,665.0
4.951510667800903,685.0
4.955777645111084,685.0
4.9603986740112305,679.0
4.963976860046387,654.0
4.968533992767334,680.0
4.972153663635254,683.0
4.976641654968262,673.0
4.980855703353882,686.0
4.988062858581543,649.0
4.992151737213135,671.0
4.9958930015563965,668.0
5.000440835952759,666.0
5.00479793548584,645.0
5.009393930435181,673.0
5.01367974281311,671.0
5.018395900726318,663.0
5.022958755493164,678.0
5.030081748962402,685.0
5.034818649291992,682.0
5.039093971252441,687.0
5.043787002563477,690.0
5.048267841339111,682.0
5.055179834365845,682.0
5.059867858886719,677.0
5.06355881690979,652.0
5.068213939666748,667.0
5.07186484336853,674.0
5.075767755508423,674.0
5.079325914382935,656.0
5.085260629653931,670.0
5.0897438526153564,679.0
5.09614896774292,672.0
5.102207899093628,674.0
5.106588840484619,684.0
5.110425710678101,676.0
5.113985776901245,688.0
5.1179118156433105,706.0
5.121598958969116,689.0
5.125615835189819,678.0
5.129290819168091,682.0
5.135296821594238,683.0
5.139737844467163,669.0
5.146229982376099,642.0
5.152418613433838,667.0
5.156775951385498,647.0
5.160646915435791,658.0
5.16425085067749,658.0
5.170964956283569,671.0
5.17514181137085,670.0
5.1788458824157715,679.0
5.184914827346802,687.0
5.189024925231934,668.0
5.193457841873169,683.0
5.19701886177063,683.0
5.201250791549683,668.0
5.205516815185547,670.0
5.209825754165649,709.0
5.213469743728638,706.0
5.217397928237915,653.0
5.221069812774658,661.0
5.225653886795044,684.0
5.230029821395874,687.0
5.234734773635864,679.0
5.239091873168945,674.0
5.243689775466919,646.0
5.248157739639282,671.0
5.255372047424316,680.0
5.2594239711761475,680.0
5.263119697570801,687.0
5.269405841827393,680.0
5.273849725723267,679.0
5.277694940567017,681.0
5.281434774398804,664.0
5.287897825241089,684.0
5.2923078536987305,671.0
5.295998811721802,673.0
5.299929857254028,670.0
5.303634881973267,670.0
5.30738091468811,670.0
5.311300754547119,668.0
5.315091848373413,676.0
5.319072961807251,658.0
5.322682857513428,652.0
5.329416751861572,667.0
5.335749864578247,673.0
5.340292692184448,672.0
5.344171762466431,671.0
5.348001718521118,675.0
5.354519605636597,660.0
5.358685731887817,643.0
5.362344741821289,674.0
5.368570804595947,668.0
5.372557640075684,667.0
5.3792219161987305,626.0
5.385544776916504,651.0
5.390063762664795,641.0
5.394110918045044,668.0
5.39811372756958,671.0
5.404489994049072,667.0
5.410555839538574,650.0
5.414900779724121,699.0
5.421189785003662,701.0
5.427403926849365,697.0
5.431816816329956,683.0
5.435637950897217,683.0
5.439208745956421,693.0
5.44599175453186,702.0
5.452099800109863,673.0
5.456531763076782,677.0
5.463214635848999,662.0
5.467374801635742,659.0
5.471037864685059,659.0
5.47496485710144,652.0
5.478635787963867,654.0
5.482365846633911,652.0
5.486241579055786,655.0
5.490001916885376,658.0
5.496402740478516,659.0
5.500410795211792,643.0
5.504060745239258,662.0
5.510293960571289,668.0
5.514387845993042,661.0
5.520988941192627,665.0
5.527080774307251,676.0
5.5315587520599365,660.0
5.53794264793396,657.0
5.544013738632202,652.0
5.54843282699585,657.0
5.55225396156311,652.0
5.55585789680481,640.0
5.562564849853516,663.0
5.56859278678894,648.0
5.572650909423828,656.0
5.579474925994873,668.0
5.585532903671265,667.0
5.589861869812012,671.0
5.593975782394409,670.0
5.598280906677246,666.0
5.602362871170044,664.0
5.60594367980957,675.0
5.612502574920654,673.0
5.6187708377838135,660.0
5.623180627822876,635.0
5.6269848346710205,634.0
5.630502700805664,652.0
5.634368896484375,646.0
5.6379828453063965,651.0
5.641946792602539,649.0
5.645564794540405,651.0
5.651502847671509,656.0
5.655452728271484,664.0
5.659519910812378,659.0
5.663060903549194,657.0
5.667083024978638,665.0
5.67075777053833,651.0
5.676677703857422,669.0
5.680814743041992,664.0
5.687676906585693,669.0
5.693844795227051,650.0
5.698131799697876,659.0
5.704373836517334,659.0
5.710294008255005,663.0
5.714238882064819,655.0
5.720846652984619,668.0
5.724865674972534,665.0
5.728448867797852,671.0
5.732309818267822,679.0
5.736180782318115,690.0
5.739969730377197,688.0
5.74643087387085,698.0
5.750734806060791,704.0
5.754616737365723,698.0
5.758553743362427,701.0
5.762148857116699,720.0
5.768014669418335,696.0
5.7720866203308105,667.0
5.7760539054870605,667.0
5.779630661010742,662.0
5.785674810409546,667.0
5.7901036739349365,639.0
5.794198751449585,649.0
5.798038721084595,649.0
5.8044188022613525,650.0
5.810492753982544,642.0
5.814889907836914,644.0
5.821156740188599,651.0
5.827354669570923,652.0
5.831715822219849,646.0
5.835535764694214,640.0
5.83910870552063,639.0
5.842998027801514,610.0
5.846590757369995,626.0
5.850445747375488,603.0
5.854055881500244,629.0
5.8599817752838135,626.0
5.864036798477173,593.0
5.868030786514282,599.0
5.871657848358154,618.0
5.875731945037842,631.0
5.879426717758179,652.0
5.883804798126221,658.0
5.88748574256897,665.0
5.893640756607056,665.0
5.898130893707275,671.0
5.904591798782349,667.0
5.910549879074097,658.0
5.914876937866211,691.0
5.920938968658447,683.0
5.926926851272583,668.0
5.930848836898804,647.0
5.937493801116943,660.0
5.9436867237091064,664.0
5.948073863983154,656.0
5.9543678760528564,655.0
5.960551738739014,648.0
5.964917898178101,652.0
5.97135591506958,657.0
5.975385665893555,660.0
5.979081869125366,649.0
5.985024929046631,663.0
5.989134788513184,667.0
5.993412733078003,649.0
5.997053861618042,668.0
6.000925779342651,682.0
6.004590749740601,650.0
6.010527849197388,655.0
6.014934778213501,652.0
6.018734693527222,659.0
6.022300720214844,656.0
6.026193857192993,659.0
6.029847621917725,656.0
6.0337488651275635,646.0
6.037417888641357,635.0
6.043424844741821,660.0
6.047562837600708,659.0
6.05410099029541,653.0
6.058453798294067,638.0
6.06234073638916,659.0
6.066303968429565,659.0
6.0698816776275635,665.0
6.07369589805603,668.0
6.077500820159912,667.0
6.0819408893585205,650.0
6.085730791091919,629.0
6.089306831359863,647.0
6.095954895019531,646.0
6.10221266746521,654.0
6.106675863265991,652.0
6.110519647598267,650.0
6.114081621170044,663.0
6.117952823638916,668.0
6.121554851531982,673.0
6.125412702560425,669.0
6.12911581993103,680.0
6.135098695755005,682.0
6.139236688613892,676.0
6.1459808349609375,678.0
6.152057647705078,672.0
6.15648889541626,661.0
6.162733793258667,654.0
6.16673469543457,638.0
6.170411586761475,614.0
6.17414665222168,641.0
6.178610801696777,641.0
6.185227870941162,637.0
6.1893439292907715,625.0
6.1961610317230225,631.0
6.202289819717407,644.0
6.206673860549927,653.0
6.210547924041748,648.0
6.214127779006958,650.0
6.218083620071411,649.0
6.2217206954956055,659.0
6.225579738616943,674.0
6.229238748550415,653.0
6.2352588176727295,617.0
6.23932957649231,656.0
6.246076822280884,657.0
6.252213001251221,649.0
6.256633758544922,645.0
6.260487794876099,648.0
6.264021873474121,652.0
6.26789665222168,660.0
6.271485805511475,678.0
6.275371789932251,663.0
6.279631853103638,636.0
6.28408670425415,668.0
6.288405895233154,677.0
6.29296875,672.0
6.297260761260986,685.0
6.3018248081207275,654.0
6.305473804473877,649.0
6.3093156814575195,666.0
6.31293797492981,666.0
6.317491769790649,671.0
6.321823835372925,674.0
6.326363801956177,658.0
6.329937934875488,665.0
6.334497690200806,668.0
6.33803391456604,686.0
6.342554807662964,694.0
6.346101999282837,692.0
6.350626707077026,678.0
6.354843854904175,684.0
6.359376907348633,677.0
6.363591909408569,679.0
6.368458986282349,685.0
6.372678756713867,670.0
6.379777669906616,655.0
6.384317874908447,643.0
6.388559818267822,658.0
6.393035888671875,648.0
6.3971967697143555,642.0
6.401908874511719,642.0
6.4065117835998535,637.0
6.4110047817230225,630.0
6.415432929992676,665.0
6.419835805892944,658.0
6.426432847976685,659.0
6.43145489692688,661.0
6.438398838043213,674.0
6.443068742752075,643.0
6.447337865829468,680.0
6.451855659484863,659.0
6.456026792526245,675.0
6.463130712509155,665.0
6.4678637981414795,664.0
6.472148895263672,669.0
6.476598739624023,656.0
6.480773687362671,639.0
6.485145807266235,664.0
6.489623785018921,657.0
6.496712923049927,674.0
6.5013439655303955,683.0
6.505566835403442,657.0
6.510036945343018,684.0
6.514304876327515,693.0
6.5214457511901855,686.0
6.525430679321289,691.0
6.529063940048218,709.0
6.535050868988037,693.0
6.539094686508179,659.0
6.543379783630371,671.0
6.546977758407593,657.0
6.550821781158447,667.0
6.554370641708374,635.0
6.558824777603149,646.0
6.563030004501343,641.0
6.567591905593872,646.0
6.5718817710876465,648.0
6.576413869857788,644.0
6.579858779907227,646.0
6.583985805511475,640.0
6.587896823883057,655.0
6.592566013336182,650.0
6.596958875656128,655.0
6.601820707321167,656.0
6.606278896331787,647.0
6.610747814178467,639.0
6.615129709243774,646.0
6.6196208000183105,636.0
6.623987913131714,653.0
6.6284308433532715,647.0
6.6350178718566895,653.0
6.64005184173584,649.0
6.644542932510376,653.0
6.648949861526489,671.0
6.653412818908691,677.0
6.660075664520264,657.0
6.665183782577515,689.0
6.669670820236206,699.0
6.674087762832642,695.0
6.678435802459717,715.0
6.684960842132568,720.0
6.689039707183838,682.0
6.693755865097046,702.0
6.698197841644287,704.0
6.705232858657837,706.0
6.709937810897827,716.0
6.71424674987793,711.0
6.7215728759765625,697.0
6.72779393196106,691.0
6.732241868972778,699.0
6.736100673675537,697.0
6.73988676071167,686.0
6.746102571487427,652.0
6.752391815185547,675.0
6.756730794906616,675.0
6.760514736175537,665.0
6.764006853103638,664.0
6.76786470413208,649.0
6.771453857421875,635.0
6.777341842651367,619.0
6.781589984893799,623.0
6.785377025604248,612.0
6.788851976394653,611.0
6.792712926864624,615.0
6.7962658405303955,601.0
6.8002769947052,588.0
6.803944826126099,598.0
6.809921741485596,626.0
6.813902854919434,629.0
6.8180296421051025,622.0
6.822018623352051,629.0
6.826146602630615,627.0
6.829789876937866,632.0
6.835777759552002,624.0
6.84014892578125,650.0
6.844054698944092,632.0
6.847634792327881,637.0
6.854190826416016,632.0
6.86038875579834,647.0
6.864811658859253,655.0
6.871019601821899,656.0
6.87708592414856,654.0
6.881526708602905,620.0
6.888103723526001,670.0
6.892172813415527,680.0
6.895886659622192,685.0
6.901832818984985,694.0
6.905866861343384,700.0
6.912502765655518,690.0
6.918618679046631,659.0
6.922529697418213,692.0
6.929141998291016,683.0
6.935171842575073,690.0
6.9392876625061035,677.0
6.945886850357056,638.0
6.9519548416137695,661.0
6.955873012542725,678.0
6.962467670440674,666.0
6.968535661697388,646.0
6.972628831863403,653.0
6.979435682296753,656.0
6.985513925552368,627.0
6.98999285697937,615.0
6.996405839920044,640.0
7.000429630279541,621.0
7.004123687744141,613.0
7.0099937915802,613.0
7.014073848724365,602.0
7.0180699825286865,585.0
7.021719694137573,584.0
7.0255749225616455,581.0
7.029214859008789,600.0
7.035184860229492,609.0
7.039254665374756,617.0
7.045953035354614,618.0
7.051978826522827,620.0
7.056375741958618,630.0
7.062624931335449,656.0
7.066633939743042,659.0
7.07030987739563,664.0
7.074060678482056,671.0
7.0778257846832275,641.0
7.081568002700806,661.0
7.087960720062256,675.0
7.092037677764893,673.0
7.09578275680542,658.0
7.101845979690552,670.0
7.106000900268555,669.0
7.112587928771973,672.0
7.118595838546753,674.0
7.122649669647217,672.0
7.129156827926636,662.0
7.135148763656616,673.0
7.139127731323242,675.0
7.143082857131958,669.0
7.146657705307007,674.0
7.150586843490601,662.0
7.154197931289673,647.0
7.160118579864502,670.0
7.164215803146362,641.0
7.171005964279175,672.0
7.175001859664917,626.0
7.178672790527344,652.0
7.182388782501221,645.0
7.186311721801758,646.0
7.1901397705078125,620.0
7.193967819213867,639.0
7.1975507736206055,638.0
7.204063892364502,645.0
7.210253715515137,659.0
7.2143659591674805,649.0
7.220890760421753,650.0
7.226991653442383,649.0
7.231374740600586,654.0
7.237675666809082,648.0
7.24381685256958,631.0
7.248323678970337,643.0
7.252374649047852,638.0
7.256018877029419,599.0
7.262431859970093,623.0
7.268625736236572,613.0
7.273064851760864,574.0
7.279480695724487,610.0
7.2835938930511475,609.0
7.2873756885528564,605.0
7.293401718139648,593.0
7.297469854354858,616.0
7.304096937179565,611.0
7.310388803482056,611.0
7.314920902252197,575.0
7.321189880371094,594.0
7.327288627624512,590.0
7.331678867340088,613.0
7.337884902954102,581.0
7.3439788818359375,596.0
7.348405838012695,586.0
7.3522608280181885,586.0
7.355875730514526,590.0
7.362541675567627,588.0
7.368558645248413,596.0
7.372560739517212,607.0
7.379098892211914,619.0
7.385228633880615,618.0
7.3897058963775635,639.0
7.396153688430786,623.0
7.402268886566162,635.0
7.406860589981079,650.0
7.4108359813690186,661.0
7.414691686630249,656.0
7.418616771697998,670.0
7.4221718311309814,679.0
7.426090955734253,669.0
7.4297919273376465,635.0
7.433693885803223,652.0
7.437386989593506,653.0
7.443390846252441,656.0
7.447540998458862,663.0
7.454294681549072,654.0
7.460336685180664,638.0
7.464801788330078,640.0
7.47085165977478,665.0
7.476880788803101,666.0
7.480973720550537,648.0
7.487594842910767,654.0
7.493652820587158,634.0
7.4976887702941895,627.0
7.504143714904785,643.0
7.508451700210571,636.0
7.512402772903442,604.0
7.518531799316406,594.0
7.522672891616821,581.0
7.529375791549683,575.0
7.535368919372559,574.0
7.5397467613220215,584.0
7.546039819717407,579.0
7.552250862121582,574.0
7.556646823883057,582.0
7.5604088306427,590.0
7.563947677612305,587.0
7.567850828170776,592.0
7.571554660797119,599.0
7.575441837310791,591.0
7.579068899154663,590.0
7.584990978240967,586.0
7.589216947555542,558.0
7.595743894577026,537.0
7.60000467300415,519.0
7.604018926620483,495.0
7.608053922653198,490.0
7.611809730529785,477.0
7.615516901016235,511.0
7.6193296909332275,535.0
7.623121738433838,497.0
7.62933087348938,488.0
7.635423898696899,512.0
7.6398069858551025,536.0
7.646344900131226,548.0
7.650421857833862,572.0
7.654124736785889,564.0
7.660065650939941,592.0
7.664160966873169,610.0
7.670767784118652,574.0
7.67683482170105,582.0
7.680966854095459,589.0
7.6875598430633545,593.0
7.693737983703613,592.0
7.698261976242065,559.0
7.70456600189209,561.0
7.70868992805481,554.0
7.712500810623169,570.0
7.718604803085327,573.0
7.722688913345337,560.0
7.729342937469482,519.0
7.735389947891235,502.0
7.739786863327026,491.0
7.746051788330078,473.0
7.750040769577026,449.0
7.753758907318115,451.0
7.757439851760864,430.0
7.761281728744507,390.0
7.765050888061523,382.0
7.768833637237549,405.0
7.772308826446533,431.0
7.776176691055298,378.0
7.779782772064209,380.0
7.783728837966919,372.0
7.787444829940796,406.0
7.793444871902466,453.0
7.7976508140563965,478.0
7.804065704345703,476.0
7.8099799156188965,454.0
7.813950777053833,438.0
7.8179707527160645,424.0
7.821526765823364,443.0
7.827293872833252,409.0
7.8315839767456055,417.0
7.837626695632935,425.0
7.843625783920288,459.0
7.847574710845947,424.0
7.854064702987671,396.0
7.858266830444336,399.0
7.862034797668457,402.0
7.868108749389648,425.0
7.872119665145874,435.0
7.876272678375244,388.0
7.880138874053955,403.0
7.884105920791626,412.0
7.887828826904297,338.0
7.893794775009155,352.0
7.898263692855835,415.0
7.904583930969238,468.0
7.908606767654419,410.0
7.912276983261108,302.0
7.918270826339722,316.0
7.922403812408447,389.0
7.926423788070679,391.0
7.930110931396484,285.0
7.934008836746216,324.0
7.937743663787842,384.0
7.941695928573608,518.0
7.945414781570435,409.0
7.951401948928833,316.0
7.955580711364746,303.0
7.9596638679504395,343.0
7.963345766067505,382.0
7.967297792434692,427.0
7.971009016036987,468.0
7.976964712142944,366.0
7.981437921524048,265.0
7.98789381980896,316.0
7.992033004760742,410.0
7.995846748352051,403.0
8.00192379951477,373.0
8.00641679763794,335.0
8.012728691101074,305.0
8.018852710723877,284.0
8.023319721221924,298.0
8.027256727218628,230.0
8.030910968780518,240.0
8.03742790222168,295.0
8.043651819229126,328.0
8.048154830932617,243.0
8.052106857299805,72.0
8.055742979049683,146.0
8.060219764709473,244.0
8.064047813415527,282.0
8.068128824234009,279.0
8.071915626525879,302.0
8.0759916305542,332.0
8.079712867736816,292.0
8.083743810653687,338.0
8.087594985961914,289.0
8.093650817871094,328.0
8.098188638687134,379.0
8.10461688041687,478.0
8.108766794204712,447.0
8.11258864402771,331.0
8.118760824203491,308.0
8.123305797576904,335.0
8.127235651016235,439.0
8.130936622619629,485.0
8.137589931488037,358.0
8.14370083808899,273.0
8.148253917694092,345.0
8.154676914215088,427.0
8.158877849578857,381.0
8.162725687026978,399.0
8.168773889541626,402.0
8.173320770263672,356.0
8.179832696914673,357.0
8.184017896652222,362.0
8.187833786010742,437.0
8.193913698196411,446.0
8.198465585708618,388.0
8.202480792999268,385.0
8.206397771835327,425.0
8.212783813476562,454.0
8.21905779838562,460.0
8.223659753799438,424.0
8.227684736251831,434.0
8.23161768913269,426.0
8.235630750656128,401.0
8.239353656768799,409.0
8.246089935302734,438.0
8.252466917037964,475.0
8.257107973098755,429.0
8.261161804199219,396.0
8.265108823776245,398.0
8.269132614135742,407.0
8.273056983947754,398.0
8.276923894882202,373.0
8.280881881713867,335.0
8.285475730895996,325.0
8.289260625839233,292.0
8.295945882797241,204.0
8.302146673202515,167.0
8.306850671768188,89.0
8.310941934585571,81.0
8.314871788024902,284.0
8.321282625198364,317.0
8.32542371749878,48.0
8.329311847686768,31.0
8.335362672805786,39.0
8.339792728424072,212.0
8.346266746520996,336.0
8.3505117893219,248.0
8.354360818862915,167.0
8.36043381690979,203.0
8.365011930465698,274.0
8.369095802307129,343.0
8.373109817504883,326.0
8.379474878311157,292.0
8.385717868804932,321.0
8.390548944473267,304.0
8.394661903381348,228.0
8.398646593093872,234.0
8.40261459350586,264.0
8.40652585029602,252.0
8.410506963729858,256.0
8.41423487663269,265.0
8.420714855194092,227.0
8.425191879272461,183.0
8.429152965545654,190.0
8.435342788696289,187.0
8.439978837966919,170.0
8.44639778137207,238.0
8.450616836547852,242.0
8.45447587966919,186.0
8.46057391166687,192.0
8.465068817138672,260.0
8.469061851501465,304.0
8.472985744476318,166.0
8.47961688041687,116.0
8.483815908432007,207.0
8.48770260810852,253.0
8.493825674057007,220.0
8.498440742492676,252.0
8.502476692199707,255.0
8.506521701812744,223.0
8.51297378540039,263.0
8.51717472076416,231.0
8.521054983139038,185.0
8.52708888053894,165.0
8.531653881072998,167.0
8.537978887557983,135.0
8.542223691940308,135.0
8.546088933944702,111.0
8.552153825759888,122.0
8.556593894958496,210.0
8.56277871131897,198.0
8.566940784454346,32.0
8.5707426071167,38.0
8.576881885528564,119.0
8.581016778945923,192.0
8.587621688842773,163.0
8.593902826309204,155.0
8.598437786102295,146.0
8.602904796600342,159.0
8.60691785812378,165.0
8.610936641693115,157.0
8.61484169960022,100.0
8.621313571929932,134.0
8.625499725341797,120.0
8.629312992095947,86.0
8.635361671447754,120.0
8.63987684249878,65.0
8.643858909606934,33.0
8.647566795349121,35.0
8.654064893722534,36.0
8.658282995223999,33.0
8.66209363937378,45.0
8.668201923370361,82.0
8.672478914260864,29.0
8.679090738296509,24.0
8.68532395362854,28.0
8.689920902252197,35.0
8.69399881362915,44.0
8.69797968864441,87.0
8.7044038772583,45.0
8.710556745529175,34.0
8.715054750442505,36.0
8.718974828720093,37.0
8.722646713256836,37.0
8.729455709457397,40.0
8.735557794570923,34.0
8.740033626556396,38.0
8.744029760360718,35.0
8.747941732406616,38.0
8.754325866699219,29.0
8.760502576828003,31.0
8.765007734298706,37.0
8.768983602523804,37.0
8.772661924362183,36.0
8.779432773590088,38.0
8.785436868667603,45.0
8.790026903152466,46.0
8.796506881713867,38.0
8.80071496963501,34.0
8.80454397201538,26.0
8.80852460861206,33.0
8.812302827835083,33.0
8.818373680114746,39.0
8.822565793991089,38.0
8.8293137550354,38.0
8.83530068397522,29.0
8.839716672897339,40.0
8.845969915390015,38.0
8.852047681808472,31.0
8.856475830078125,30.0
8.862831830978394,38.0
8.866952896118164,39.0
8.870587825775146,35.0
8.876537799835205,32.0
8.880681991577148,24.0
8.8848397731781,37.0
8.888556718826294,36.0
8.892542839050293,35.0
8.896248817443848,30.0
8.90216875076294,27.0
8.906526803970337,35.0
8.910355806350708,40.0
8.91391372680664,63.0
8.917821884155273,78.0
8.921369791030884,85.0
8.925509691238403,105.0
8.929330825805664,92.0
8.935365676879883,96.0
8.939727783203125,82.0
8.94619083404541,69.0
8.952335834503174,52.0
8.956714868545532,34.0
8.962952852249146,34.0
8.967025756835938,41.0
8.970701694488525,57.0
8.97664999961853,39.0
8.9807608127594,30.0
8.984822750091553,34.0
8.988544940948486,28.0
8.992460012435913,28.0
8.996201992034912,37.0
9.002251863479614,114.0
9.006674766540527,90.0
9.01051378250122,46.0
9.014074802398682,44.0
9.017979860305786,70.0
9.021633625030518,68.0
9.025516748428345,80.0
9.029223918914795,87.0
9.035152912139893,70.0
9.03926396369934,47.0
9.045926809310913,39.0
9.051973819732666,29.0
9.055931806564331,28.0
9.062789678573608,34.0
9.0692777633667,32.0
9.074330806732178,35.0
9.079227685928345,39.0
9.084143877029419,32.0
9.088477849960327,34.0
9.093106746673584,33.0
9.097402811050415,28.0
9.101953744888306,39.0
9.105768918991089,56.0
9.109931707382202,38.0
9.113578796386719,54.0
9.117479801177979,73.0
9.121131658554077,100.0
9.127131700515747,107.0
9.131561994552612,116.0
9.137884855270386,134.0
9.14197564125061,124.0
9.145613670349121,124.0
9.15159296989441,137.0
9.15568470954895,133.0
9.159680843353271,150.0
9.163307666778564,141.0
9.167173862457275,142.0
9.170811891555786,144.0
9.176708698272705,138.0
9.18077278137207,133.0
9.184901714324951,122.0
9.188557624816895,107.0
9.192415952682495,105.0
9.196075677871704,116.0
9.199988842010498,86.0
9.203635931015015,111.0
9.207360982894897,131.0
9.21119999885559,132.0
9.215007781982422,140.0
9.218806743621826,124.0
9.223231792449951,109.0
9.230165958404541,96.0
9.234306812286377,84.0
9.23795199394226,72.0
9.242474794387817,43.0
9.246792793273926,41.0
9.251330614089966,44.0
9.255505800247192,135.0
9.259983777999878,137.0
9.264159917831421,35.0
9.27108359336853,37.0
9.275814771652222,33.0
9.28003478050232,115.0
9.28447675704956,141.0
9.288758754730225,109.0
9.293320894241333,100.0
9.29756784439087,148.0
9.304533958435059,124.0
9.309217691421509,159.0
9.313516616821289,197.0
9.318014860153198,166.0
9.322267770767212,113.0
9.326863765716553,111.0
9.33130168914795,123.0
9.338286638259888,135.0
9.342935800552368,136.0
9.347271919250488,97.0
9.35182785987854,113.0
9.35625696182251,89.0
9.363220930099487,102.0
9.36789083480835,126.0
9.372118711471558,80.0
9.37670087814331,40.0
9.380184650421143,33.0
9.383988857269287,34.0
9.387598752975464,67.0
9.392183780670166,205.0
9.39653468132019,107.0
9.401081800460815,36.0
9.405387878417969,35.0
9.409979820251465,34.0
9.414306640625,88.0
9.421574831008911,167.0
9.426337718963623,124.0
9.430663824081421,129.0
9.435252904891968,151.0
9.439734697341919,171.0
9.446834802627563,205.0
9.451606750488281,192.0
9.455294847488403,187.0
9.459798574447632,138.0
9.464072942733765,156.0
9.468671798706055,188.0
9.472344636917114,205.0
9.476951599121094,200.0
9.480556726455688,163.0
9.484379768371582,142.0
9.488066673278809,107.0
9.492698669433594,127.0
9.497054815292358,154.0
9.50167965888977,89.0
9.505979776382446,105.0
9.51326584815979,97.0
9.518007755279541,83.0
9.52237582206726,146.0
9.52700686454773,120.0
9.531477928161621,67.0
9.538274765014648,91.0
9.542978763580322,155.0
9.54738974571228,163.0
9.55201268196106,94.0
9.55653977394104,57.0
9.563462734222412,70.0
9.568177700042725,112.0
9.571845769882202,127.0
9.576435804367065,165.0
9.580079793930054,105.0
9.58462381362915,56.0
9.588921785354614,52.0
9.593559741973877,109.0
9.598071813583374,185.0
9.60286283493042,152.0
9.607555627822876,121.0
9.612055778503418,170.0
9.618648767471313,179.0
9.623112916946411,194.0
9.627030611038208,220.0
9.630646705627441,193.0
9.635360956192017,157.0
9.639046907424927,163.0
9.643650770187378,137.0
9.647298812866211,151.0
9.651302814483643,174.0
9.65501594543457,198.0
9.659002780914307,131.0
9.66275668144226,144.0
9.668790578842163,191.0
9.673300981521606,185.0
9.679587841033936,141.0
9.685654640197754,140.0
9.690080881118774,146.0
9.696257591247559,144.0
9.70040774345398,232.0
9.70410680770874,189.0
9.71017861366272,122.0
9.714751958847046,137.0
9.721102714538574,170.0
9.727136850357056,166.0
9.731638669967651,137.0
9.738027572631836,138.0
9.742148876190186,139.0
9.74590277671814,149.0
9.751946926116943,168.0
9.756488800048828,179.0
9.762859582901001,149.0
9.766995906829834,167.0
9.770726919174194,170.0
9.776800870895386,170.0
9.78098201751709,134.0
9.78767991065979,138.0
9.794042825698853,137.0
9.798763751983643,110.0
9.802730798721313,94.0
9.806635618209839,143.0
9.810593605041504,189.0
9.814287662506104,117.0
9.820993661880493,78.0
9.825284719467163,78.0
9.829166650772095,124.0
9.835275888442993,159.0
9.839355707168579,151.0
9.845969915390015,133.0
9.8521249294281,158.0
9.85666275024414,143.0
9.860527753829956,109.0
9.864168882369995,116.0
9.870887756347656,126.0
9.876909732818604,86.0
9.881027698516846,72.0
9.887743949890137,30.0
9.894061803817749,83.0
9.898590803146362,145.0
9.902505874633789,43.0
9.906359672546387,37.0
9.91275691986084,43.0
9.918978691101074,56.0
9.923374652862549,101.0
9.927264928817749,226.0
9.930881023406982,165.0
9.937538623809814,70.0
9.943607807159424,117.0
9.948051929473877,205.0
9.954219579696655,205.0
9.960289001464844,184.0
9.964686632156372,153.0
9.970903635025024,127.0
9.976932764053345,164.0
9.981506824493408,179.0
9.98828387260437,173.0
9.992879867553711,155.0
9.997061729431152,98.0
10.001276731491089,112.0
10.005151987075806,177.0
10.009280920028687,176.0
10.013077974319458,161.0
10.019225835800171,167.0
10.02381682395935,188.0
10.027776956558228,199.0
10.031667947769165,195.0
10.035607814788818,195.0
10.039260864257812,223.0
10.045985698699951,198.0
10.05231261253357,198.0
10.056761741638184,181.0
10.061125755310059,183.0
10.065078735351562,207.0
10.06903076171875,204.0
10.0726797580719,189.0
10.079371929168701,179.0
10.083486795425415,186.0
10.087236881256104,194.0
10.093300819396973,184.0
10.097592830657959,146.0
10.10439658164978,150.0
10.110599756240845,166.0
10.115132808685303,171.0
10.119051933288574,199.0
10.122942924499512,176.0
10.129349708557129,140.0
10.133471965789795,108.0
10.137204885482788,77.0
10.143322706222534,94.0
10.147411823272705,82.0
10.15154480934143,134.0
10.155249834060669,129.0
10.159199953079224,68.0
10.16291880607605,52.0
10.168912887573242,65.0
10.173357725143433,136.0
10.17726469039917,132.0
10.180907726287842,134.0
10.18765377998352,139.0
10.194111824035645,151.0
10.19866681098938,153.0
10.202662706375122,147.0
10.206580877304077,175.0
10.210420846939087,172.0
10.213998794555664,177.0
10.217936754226685,179.0
10.22163987159729,178.0
10.225569009780884,176.0
10.229310989379883,181.0
10.235342741012573,172.0
10.239733934402466,185.0
10.246058940887451,210.0
10.252152681350708,175.0
10.256653785705566,160.0
10.26058292388916,167.0
10.264217853546143,165.0
10.270841836929321,165.0
10.276967763900757,165.0
10.28149676322937,152.0
10.287968873977661,189.0
10.292276859283447,137.0
10.296083927154541,109.0
10.300116777420044,136.0
10.30388879776001,172.0
10.309853792190552,119.0
10.313966751098633,124.0
10.31801176071167,159.0
10.321730613708496,184.0
10.32566499710083,170.0
10.329406976699829,151.0
10.335394620895386,166.0
10.339784860610962,190.0
10.346096754074097,190.0
10.350416898727417,206.0
10.354333877563477,181.0
10.360434770584106,164.0
10.364884853363037,161.0
10.371195793151855,176.0
10.375385761260986,204.0
10.37913966178894,187.0
10.385217666625977,150.0
10.389790773391724,158.0
10.393783807754517,162.0
10.397411823272705,185.0
10.401434659957886,195.0
10.405144691467285,193.0
10.409093856811523,184.0
10.41281270980835,195.0
10.418824911117554,175.0
10.423280715942383,202.0
10.42716383934021,207.0
10.430798768997192,185.0
10.437423706054688,166.0
10.443542718887329,169.0
10.447633743286133,150.0
10.454412698745728,173.0
10.460664749145508,205.0
10.465112686157227,144.0
10.468997716903687,112.0
10.472639799118042,126.0
10.479338884353638,170.0
10.483529806137085,192.0
10.487353801727295,183.0
10.493533849716187,178.0
10.497691869735718,186.0
10.50439977645874,162.0
10.510547876358032,196.0
10.515038967132568,197.0
10.521466732025146,190.0
10.525529861450195,168.0
10.529296875,183.0
10.53536581993103,157.0
10.539925813674927,182.0
10.543882846832275,179.0
10.54752779006958,184.0
10.554237842559814,169.0
10.560354709625244,199.0
10.564782857894897,189.0
10.571256637573242,201.0
10.575401782989502,196.0
10.579182863235474,195.0
10.585339784622192,181.0
10.589937925338745,204.0
10.596305847167969,212.0
10.602437734603882,209.0
10.60723876953125,176.0
10.611209869384766,186.0
10.615051984786987,183.0
10.621425867080688,200.0
10.625525951385498,174.0
10.629241704940796,191.0
10.635273933410645,202.0
10.639705657958984,206.0
10.646090984344482,207.0
10.652302742004395,203.0
10.65689492225647,211.0
10.660876750946045,228.0
10.664817810058594,225.0
10.671369791030884,218.0
10.67549180984497,221.0
10.67926287651062,217.0
10.685288906097412,202.0
10.689773797988892,190.0
10.69617486000061,178.0
10.700323820114136,175.0
10.704170942306519,171.0
10.710197925567627,164.0
10.71430492401123,168.0
10.721139907836914,158.0
10.725430011749268,143.0
10.729185581207275,131.0
10.735299825668335,111.0
10.739839792251587,94.0
10.743788719177246,97.0
10.747421741485596,87.0
10.751393795013428,96.0
10.755082845687866,73.0
10.759052753448486,39.0
10.76278281211853,43.0
10.768844604492188,29.0
10.77329683303833,34.0
10.779623746871948,35.0
10.785713911056519,46.0
10.790195941925049,45.0
10.794188737869263,37.0
10.798091888427734,34.0
10.804452657699585,34.0
10.808592796325684,37.0
10.812312841415405,39.0
10.818264722824097,34.0
10.82236385345459,30.0
10.826369762420654,38.0
10.829994916915894,33.0
10.833930969238281,36.0
10.837547779083252,31.0
10.843611717224121,35.0
10.848008871078491,31.0
10.854362726211548,30.0
10.86044979095459,32.0
10.864944696426392,31.0
10.871326923370361,32.0
10.875351667404175,32.0
10.879089832305908,26.0
10.885077953338623,28.0
10.889322996139526,26.0
10.896172761917114,31.0
10.900339841842651,34.0
10.904194831848145,31.0
10.908238649368286,32.0
10.911934852600098,32.0
10.91568374633789,31.0
10.919518947601318,23.0
10.923255681991577,33.0
10.92940068244934,32.0
10.933543920516968,33.0
10.937232732772827,30.0
10.943127632141113,34.0
10.947075843811035,31.0
10.951068878173828,31.0
10.954636812210083,30.0
10.960599660873413,27.0
10.964950799942017,22.0
10.968808889389038,28.0
10.97248101234436,19.0
10.978938817977905,25.0
10.98494267463684,33.0
10.988990783691406,24.0
10.993067741394043,24.0
10.996606826782227,30.0
11.000503778457642,32.0
11.004132747650146,27.0
11.010276794433594,30.0
11.014262676239014,34.0
11.020760774612427,24.0
11.026744842529297,30.0
11.030710697174072,33.0
11.034692764282227,33.0
11.038482904434204,30.0
11.04258680343628,31.0
11.04639482498169,31.0
11.050419807434082,34.0
11.05408000946045,32.0
11.060046672821045,35.0
11.06424880027771,36.0
11.070730924606323,37.0
11.07679796218872,32.0
11.080902814865112,35.0
11.087498903274536,36.0
11.091527938842773,35.0
11.095106601715088,36.0
11.098921775817871,37.0
11.102897882461548,36.0
11.106598854064941,34.0
11.11297082901001,31.0
11.116967916488647,34.0
11.120624780654907,33.0
11.126527786254883,36.0
11.130608797073364,36.0
11.134517908096313,39.0
11.13810682296753,33.0
11.14396595954895,32.0
11.148361921310425,25.0
11.152101755142212,30.0
11.155633926391602,33.0
11.159491777420044,24.0
11.163058757781982,26.0
11.167606592178345,30.0
11.171908855438232,33.0
11.176362991333008,29.0
11.180571794509888,30.0
11.184996843338013,31.0
11.189208745956421,30.0
11.196518898010254,24.0
11.201145648956299,28.0
11.205443620681763,29.0
11.209972858428955,30.0
11.213502883911133,33.0
11.217296838760376,28.0
11.22081470489502,34.0
11.225276708602905,32.0
11.229493856430054,25.0
11.233961820602417,30.0
11.23820185661316,22.0
11.24266767501831,30.0
11.246994733810425,29.0
11.251507759094238,31.0
11.255785942077637,29.0
11.26032280921936,29.0
11.264689922332764,32.0
11.27156662940979,21.0
11.276222944259644,22.0
11.280422925949097,31.0
11.284832954406738,30.0
11.289076805114746,29.0
11.293586730957031,29.0
11.2980318069458,20.0
11.305039882659912,31.0
11.309741735458374,28.0
11.313939809799194,26.0
11.318412780761719,28.0
11.32267165184021,27.0
11.32998275756836,27.0
11.334622859954834,25.0
11.338762998580933,27.0
11.3432297706604,20.0
11.34752082824707,25.0
11.354722738265991,26.0
11.359351634979248,27.0
11.36351466178894,28.0
11.36799168586731,30.0
11.372285842895508,27.0
11.376766920089722,29.0
11.380916833877563,29.0
11.388152837753296,20.0
11.392170906066895,27.0
11.395822763442993,25.0
11.402325868606567,27.0
11.40669584274292,30.0
11.410496950149536,26.0
11.41399884223938,28.0
11.418550729751587,26.0
11.422988653182983,25.0
11.430164813995361,27.0
11.43419075012207,27.0
11.43781566619873,19.0
11.442280769348145,30.0
11.44659686088562,27.0
11.45108675956726,25.0
11.45465874671936,21.0
11.459191799163818,20.0
11.462846755981445,25.0
11.467321872711182,25.0
11.471644878387451,25.0
11.476091861724854,27.0
11.48026967048645,19.0
11.484664678573608,25.0
11.488942861557007,25.0
11.493534803390503,26.0
11.49797773361206,27.0
11.504839897155762,25.0
11.509479761123657,19.0
11.513033866882324,28.0
11.517541885375977,25.0
11.521859645843506,27.0
11.526404857635498,28.0
11.530551671981812,27.0
11.535018920898438,28.0
11.539243698120117,24.0
11.546385765075684,26.0
11.551174879074097,26.0
11.555433988571167,20.0
11.559918642044067,28.0
11.564193725585938,25.0
11.571136951446533,18.0
11.575817823410034,24.0
11.579331636428833,19.0
11.58372187614441,24.0
11.588022708892822,26.0
11.592562913894653,26.0
11.596222877502441,27.0
11.6006498336792,24.0
11.605076789855957,29.0
11.60988473892212,25.0
11.6141939163208,27.0
11.620820999145508,24.0
11.626795768737793,23.0
11.630844831466675,24.0
11.637421607971191,28.0
11.643529891967773,25.0
11.647579908370972,19.0
11.654128789901733,26.0
11.660215616226196,18.0
11.664279699325562,20.0
11.670784950256348,23.0
11.674822807312012,22.0
11.678466796875,26.0
11.682166576385498,27.0
11.686020851135254,25.0
11.689740657806396,25.0
11.695900917053223,27.0
11.701884746551514,26.0
11.705919981002808,25.0
11.712334632873535,25.0
11.718321800231934,24.0
11.722387790679932,25.0
11.726430892944336,26.0
11.730008840560913,19.0
11.733834981918335,18.0
11.737467765808105,27.0
11.74342393875122,26.0
11.747506856918335,24.0
11.753997802734375,27.0
11.760005712509155,23.0
11.76406192779541,24.0
11.768024682998657,22.0
11.77164077758789,25.0
11.775460720062256,27.0
11.779071807861328,20.0
11.78498888015747,18.0
11.789139747619629,24.0
11.79561972618103,25.0
11.801646709442139,20.0
11.805694818496704,31.0
11.809634685516357,26.0
11.813244819641113,20.0
11.817086935043335,22.0
11.820679903030396,22.0
11.82653284072876,28.0
11.830618858337402,26.0
11.8345947265625,25.0
11.838177680969238,22.0
11.842038631439209,25.0
11.84562087059021,28.0
11.851569890975952,24.0
11.855632781982422,23.0
11.859607696533203,25.0
11.863209962844849,24.0
11.867029905319214,25.0
11.870641708374023,27.0
11.876545667648315,18.0
11.88059377670288,26.0
11.88447380065918,27.0
11.888751745223999,21.0
11.892549753189087,26.0
11.896124839782715,27.0
11.900614738464355,23.0
11.904942750930786,27.0
11.909484624862671,24.0
11.913059711456299,25.0
11.917528629302979,18.0
11.921119928359985,24.0
11.925659894943237,23.0
11.92996883392334,25.0
11.934550762176514,25.0
11.938779830932617,24.0
11.943274974822998,24.0
11.94751262664795,17.0
11.954700708389282,25.0
11.958632946014404,24.0
11.962923765182495,25.0
11.967400789260864,25.0
11.971681594848633,25.0
11.976202964782715,25.0
11.980402946472168,23.0
11.984826803207397,25.0
11.989089012145996,28.0
11.993623733520508,27.0
11.998050689697266,23.0
12.00496792793274,25.0
12.009564876556396,24.0
12.013816833496094,27.0
12.018298864364624,27.0
12.022523880004883,24.0
12.029782772064209,24.0
12.034432888031006,24.0
12.038065910339355,28.0
12.042582750320435,28.0
12.046223878860474,27.0
12.050718784332275,23.0
12.05424165725708,23.0
12.059008836746216,23.0
12.06348967552185,25.0
12.068097591400146,23.0
12.072284936904907,24.0
12.076697826385498,17.0
12.080769777297974,25.0
12.085173845291138,28.0
12.089340925216675,24.0
12.096323728561401,22.0
12.101166725158691,23.0
12.105570793151855,23.0
12.110248804092407,22.0
12.114936828613281,20.0
12.12203860282898,15.0
12.126714706420898,21.0
12.130963802337646,20.0
12.138208866119385,24.0
12.142876863479614,17.0
12.147172689437866,25.0
12.15171194076538,23.0
12.155913829803467,25.0
12.163047790527344,27.0
12.167686700820923,25.0
12.171980619430542,25.0
12.176410675048828,19.0
12.180577754974365,18.0
12.184952735900879,29.0
12.18920087814331,23.0
12.196202993392944,25.0
12.200875759124756,20.0
12.205153703689575,23.0
12.209645748138428,25.0
12.213886976242065,17.0
12.218366861343384,25.0
12.22258186340332,25.0
12.229623794555664,23.0
12.23434591293335,24.0
12.237961769104004,23.0
12.242442846298218,22.0
12.246773958206177,16.0
12.251299619674683,23.0
12.255571842193604,25.0
12.260124921798706,26.0
12.264328956604004,22.0
12.271497964859009,24.0
12.27619194984436,27.0
12.279683828353882,24.0
12.284164667129517,25.0
12.28842282295227,23.0
12.2929208278656,25.0
12.296478986740112,25.0
12.300273895263672,23.0
12.303905725479126,17.0
12.308429718017578,24.0
12.312712907791138,25.0
12.31716775894165,19.0
12.321507692337036,23.0
12.32538390159607,24.0
12.328955888748169,29.0
12.335564613342285,24.0
12.339927673339844,23.0
12.346130847930908,17.0
12.352049827575684,26.0
12.356354713439941,22.0
12.362442970275879,24.0
12.368372917175293,24.0
12.372434854507446,22.0
12.376328945159912,23.0
12.379924774169922,25.0
12.383715629577637,25.0
12.387276649475098,24.0
12.393212795257568,24.0
12.397238731384277,26.0
12.40133285522461,17.0
12.405594825744629,26.0
12.41009783744812,18.0
12.41425085067749,24.0
12.421486854553223,20.0
12.425737857818604,25.0
12.429390668869019,26.0
12.435311794281006,23.0
12.439767599105835,25.0
12.446054697036743,22.0
12.452033758163452,20.0
12.45648980140686,25.0
12.46035361289978,24.0
12.463894605636597,20.0
12.467805862426758,20.0
12.47144079208374,25.0
12.477312803268433,18.0
12.481701850891113,23.0
12.485558032989502,25.0
12.48909878730774,23.0
12.492986679077148,22.0
12.496575832366943,26.0
12.500427961349487,19.0
12.504065036773682,23.0
12.510052680969238,22.0
12.514150857925415,24.0
12.520689725875854,25.0
12.52681279182434,24.0
12.53138279914856,22.0
12.537720680236816,16.0
12.54181456565857,17.0
12.545557975769043,25.0
12.551575660705566,24.0
12.555670738220215,23.0
12.559677839279175,23.0
12.563320636749268,19.0
12.567257642745972,27.0
12.570942878723145,24.0
12.576860904693604,25.0
12.580918788909912,24.0
12.587465763092041,26.0
12.593402862548828,26.0
12.597434759140015,16.0
12.601416826248169,24.0
12.605064868927002,26.0
12.60933780670166,24.0
12.612965822219849,22.0
12.616801738739014,24.0
12.621184825897217,18.0
12.625747919082642,17.0
12.630056858062744,24.0
12.634647607803345,16.0
12.638905763626099,26.0
12.643459796905518,24.0
12.648001670837402,18.0
12.65510082244873,21.0
12.65971565246582,24.0
12.663357734680176,20.0
12.667842626571655,23.0
12.672147750854492,24.0
12.67665982246399,24.0
12.680879831314087,24.0
12.688017845153809,19.0
12.692729711532593,25.0
12.696377754211426,18.0
12.700862884521484,17.0
12.705427885055542,22.0
12.710019826889038,24.0
12.713741779327393,22.0
12.71823000907898,22.0
12.722466707229614,24.0
12.729432821273804,22.0
12.734127759933472,24.0
12.737619876861572,26.0
12.742077827453613,21.0
12.746318817138672,22.0
12.750903606414795,22.0
12.755153894424438,21.0
12.759239912033081,22.0
12.762753009796143,23.0
12.76723575592041,25.0
12.770806789398193,20.0
12.775428771972656,20.0
12.779658794403076,22.0
12.784145832061768,23.0
12.787739753723145,22.0
12.792255878448486,25.0
12.796597003936768,23.0
12.801132678985596,21.0
12.805369853973389,23.0
12.80983567237854,19.0
12.814046859741211,23.0
12.818542718887329,22.0
12.822988748550415,15.0
12.829738855361938,20.0
12.834444046020508,24.0
12.838746786117554,24.0
12.843318700790405,24.0
12.847593784332275,22.0
12.854609727859497,22.0
12.859498977661133,24.0
12.863824844360352,23.0
12.86842393875122,17.0
12.872685670852661,20.0
12.879514694213867,25.0
12.884097576141357,20.0
12.887646913528442,24.0
12.892170906066895,24.0
12.89636778831482,21.0
12.90088963508606,22.0
12.905011892318726,23.0
12.909496784210205,14.0
12.913606882095337,22.0
12.918055772781372,22.0
12.922211647033691,22.0
12.926729917526245,16.0
12.93094277381897,25.0
12.938121795654297,21.0
12.94283390045166,22.0
12.947147846221924,22.0
12.95170783996582,20.0
12.95530080795288,23.0
12.959149837493896,27.0
12.962746858596802,20.0
12.96727180480957,25.0
12.971598863601685,19.0
12.97609281539917,19.0
12.980297803878784,21.0
12.984793663024902,23.0
12.989055871963501,20.0
12.99357271194458,22.0
12.997997760772705,15.0
13.00499677658081,19.0
13.00970983505249,21.0
13.013962984085083,23.0
13.01850175857544,24.0
13.02291989326477,22.0
13.029976844787598,16.0
13.034721612930298,23.0
13.03899073600769,23.0
13.043561935424805,23.0
13.048077821731567,19.0
13.055052757263184,22.0
13.059714794158936,17.0
13.063323736190796,21.0
13.067912817001343,22.0
13.071560859680176,21.0
13.075416803359985,14.0
13.079638004302979,22.0
13.084123849868774,20.0
13.088388681411743,21.0
13.091486930847168,25.0
13.096028804779053,18.0
13.100589752197266,25.0
13.104880809783936,24.0
13.109403848648071,22.0
13.11364197731018,19.0
13.118151903152466,23.0
13.122448682785034,22.0
13.129414796829224,21.0
13.134130954742432,14.0
13.138320684432983,24.0
13.14282488822937,22.0
13.147023677825928,21.0
13.151534795761108,23.0
13.15572190284729,19.0
13.160558700561523,20.0
13.165123701095581,22.0
13.172384977340698,14.0
13.177413702011108,19.0
13.180943727493286,21.0
13.188226699829102,15.0
13.192876815795898,15.0
13.196454763412476,22.0
13.20097279548645,20.0
13.2046217918396,24.0
13.209186792373657,14.0
13.21349287033081,18.0
13.217956781387329,22.0
13.221544742584229,23.0
13.22610878944397,21.0
13.229724884033203,20.0
13.234272003173828,19.0
13.237888813018799,21.0
13.242398977279663,24.0
13.246027946472168,16.0
13.250573635101318,23.0
13.254933834075928,24.0
13.259480714797974,21.0
13.263733863830566,13.0
13.268260717391968,21.0
13.27253770828247,21.0
13.279714822769165,22.0
13.283700942993164,20.0
13.287978887557983,22.0
13.294472932815552,17.0
13.299020767211914,24.0
13.303181648254395,21.0
13.306943893432617,21.0
13.311534643173218,20.0
13.318134784698486,20.0
13.323257684707642,21.0
13.329533815383911,21.0
13.333626747131348,19.0
13.337917804718018,23.0
13.342466831207275,21.0
13.346137762069702,20.0
13.350709915161133,23.0
13.35506272315979,20.0
13.359583854675293,24.0
13.363215684890747,16.0
13.367798566818237,22.0
13.372118711471558,19.0
13.376658916473389,23.0
13.380216836929321,19.0
13.384706735610962,21.0
13.389007806777954,13.0
13.393611907958984,20.0
13.398053884506226,19.0
13.405013799667358,25.0
13.409739971160889,23.0
13.413381814956665,22.0
13.417853832244873,13.0
13.421475648880005,20.0
13.426024913787842,14.0
13.430327653884888,21.0
13.4348726272583,19.0
13.438524723052979,21.0
13.44499683380127,23.0
13.451457738876343,20.0
13.455432891845703,26.0
13.45947790145874,22.0
13.463030576705933,21.0
13.46759295463562,23.0
13.471837759017944,21.0
13.476401805877686,23.0
13.480523824691772,21.0
13.484997749328613,18.0
13.489211797714233,15.0
13.496359825134277,22.0
13.501078605651855,19.0
13.505287885665894,21.0
13.509870767593384,17.0
13.514050722122192,22.0
13.518571615219116,23.0
13.522981882095337,19.0
13.529770851135254,16.0
13.534499645233154,20.0
13.538054704666138,20.0
13.542601823806763,22.0
13.546874761581421,21.0
13.550750970840454,19.0
13.554344892501831,21.0
13.558870792388916,19.0
13.56306791305542,22.0
13.567628622055054,19.0
13.571870803833008,20.0
13.576449632644653,23.0
13.58060073852539,20.0
13.585080623626709,16.0
13.589330911636353,25.0
13.596520900726318,23.0
13.601282596588135,14.0
13.605522871017456,18.0
13.610155582427979,19.0
13.61510682106018,20.0
13.619009733200073,20.0
13.623435974121094,20.0
13.627912759780884,19.0
13.632362842559814,23.0
13.636777877807617,22.0
13.643398761749268,20.0
13.648445844650269,21.0
13.65296483039856,14.0
13.657347679138184,23.0
13.661780834197998,22.0
13.668446779251099,16.0
13.672467947006226,14.0
13.679345846176147,21.0
13.683296918869019,22.0
13.686901807785034,21.0
13.690603017807007,21.0
13.694358587265015,21.0
13.698048830032349,18.0
13.704246759414673,23.0
13.710465669631958,20.0
13.714773893356323,16.0
13.721057653427124,22.0
13.727224826812744,22.0
13.731621742248535,21.0
13.735471725463867,20.0
13.738980770111084,21.0
13.742833852767944,26.0
13.74648380279541,20.0
13.752548694610596,16.0
13.756992816925049,23.0
13.760982751846313,17.0
13.76469874382019,21.0
13.771344900131226,24.0
13.7757089138031,17.0
13.779399871826172,17.0
13.78322982788086,19.0
13.787567853927612,13.0
13.792117834091187,19.0
13.796504735946655,20.0
13.801392793655396,16.0
13.80510687828064,20.0
13.809755802154541,24.0
13.813349723815918,22.0
13.817909955978394,15.0
13.821560621261597,21.0
13.826190710067749,23.0
13.830450773239136,18.0
13.835086822509766,21.0
13.838699579238892,14.0
13.843289852142334,11.0
13.847610712051392,20.0
13.85471773147583,23.0
13.85878872871399,14.0
13.863125801086426,23.0
13.867657899856567,22.0
13.872046709060669,17.0
13.876612663269043,20.0
13.880152702331543,17.0
13.884780645370483,21.0
13.888402938842773,22.0
13.892926931381226,22.0
13.897249698638916,21.0
13.901872873306274,22.0
13.906345844268799,16.0
13.913460969924927,26.0
13.918155908584595,15.0
13.92185378074646,13.0
13.926626682281494,22.0
13.930176973342896,24.0
13.934825897216797,13.0
13.939072847366333,23.0
13.94367790222168,20.0
13.947307586669922,13.0
13.951900720596313,19.0
13.956364631652832,19.0
13.963392972946167,17.0
13.96816086769104,13.0
13.972495794296265,17.0
13.979990005493164,17.0
13.984198808670044,16.0
13.988511800765991,19.0
13.993257999420166,18.0
13.996910810470581,19.0
14.001481771469116,13.0
14.005117893218994,18.0
14.009776830673218,17.0
14.01339077949524,1.0
14.017333984375,18.0
14.021700859069824,18.0
14.026370763778687,20.0
14.030025959014893,20.0
14.034623861312866,18.0
14.03888988494873,23.0
14.043493747711182,18.0
14.048008918762207,20.0
14.052564859390259,19.0
14.057196617126465,18.0
14.061922788619995,19.0
14.06870174407959,17.0
14.07378363609314,13.0
14.077605724334717,25.0
14.081923723220825,20.0
14.086413621902466,20.0
14.09080171585083,18.0
14.095393657684326,14.0
14.102060794830322,22.0
14.107133865356445,20.0
14.111679792404175,16.0
14.118573665618896,20.0
14.122662782669067,17.0
14.129990816116333,22.0
14.134227752685547,19.0
14.137872695922852,19.0
14.141702890396118,19.0
14.145258903503418,19.0
14.1489098072052,21.0
14.1527578830719,19.0
14.1564359664917,15.0
14.161123752593994,19.0
14.16552186012268,20.0
14.169886827468872,21.0
14.176402807235718,20.0
14.18091869354248,17.0
14.18818473815918,20.0
14.192967891693115,24.0
14.197192907333374,19.0
14.201797723770142,22.0
14.205347776412964,16.0
14.209871768951416,21.0
14.214195966720581,21.0
14.221402883529663,16.0
14.225613832473755,20.0
14.23011302947998,19.0
14.2352876663208,22.0
14.238824844360352,19.0
14.242690801620483,19.0
14.246184825897217,21.0
14.250714778900146,18.0
14.254934787750244,20.0
14.259525775909424,22.0
14.263771772384644,14.0
14.268319845199585,17.0
14.271939754486084,23.0
14.276473760604858,21.0
14.280016899108887,20.0
14.284492015838623,21.0
14.28877067565918,17.0
14.29337763786316,15.0
14.29696774482727,17.0
14.301530838012695,19.0
14.305815696716309,21.0
14.312929630279541,17.0
14.317654609680176,13.0
14.321274757385254,20.0
14.325793743133545,21.0
14.330086708068848,22.0
14.334635734558105,20.0
14.338217973709106,20.0
14.342834949493408,16.0
14.346988677978516,20.0
14.351494789123535,14.0
14.355702638626099,21.0
14.360384941101074,11.0
14.36483097076416,22.0
14.371734619140625,16.0
14.376397609710693,20.0
14.379964828491211,14.0
14.384419679641724,14.0
14.388743877410889,19.0
14.39360785484314,23.0
14.397227764129639,20.0
14.401857614517212,14.0
14.405443668365479,19.0
14.410088777542114,10.0
14.414568901062012,19.0
14.421794652938843,17.0
14.42655897140503,18.0
14.430845737457275,16.0
14.438118696212769,20.0
14.44285273551941,19.0
14.44718885421753,15.0
14.451775789260864,8.0
14.45539665222168,18.0
14.459882974624634,20.0
14.463454961776733,11.0
14.46799373626709,12.0
14.471629619598389,12.0
14.476139783859253,19.0
14.47967791557312,19.0
14.484144687652588,20.0
14.488435983657837,20.0
14.492981910705566,21.0
14.49728274345398,21.0
14.502020835876465,19.0
14.506760835647583,21.0
14.511305809020996,18.0
14.515841722488403,15.0
14.520380735397339,22.0
14.526968717575073,16.0
14.532068729400635,19.0
14.53591275215149,12.0
14.540331602096558,18.0
14.544814825057983,21.0
14.551533699035645,22.0
14.555617809295654,23.0
14.560273885726929,22.0
14.564729690551758,21.0
14.571702718734741,20.0
14.576411724090576,21.0
14.58064889907837,15.0
14.58511996269226,16.0
14.58958888053894,19.0
14.596609592437744,14.0
14.600632667541504,17.0
14.604262828826904,19.0
14.608215808868408,20.0
14.612346887588501,15.0
14.616429805755615,12.0
14.62016773223877,18.0
14.623927593231201,11.0
14.628432750701904,21.0
14.635095596313477,19.0
14.640114784240723,19.0
14.644595861434937,11.0
14.649035930633545,19.0
14.653514862060547,20.0
14.659989833831787,23.0
14.663944959640503,17.0
14.66865587234497,17.0
14.672268629074097,21.0
14.6767418384552,13.0
14.680930614471436,14.0
14.687812805175781,20.0
14.692575931549072,14.0
14.696870803833008,23.0
14.70134973526001,19.0
14.704931735992432,19.0
14.709520816802979,23.0
14.713131666183472,19.0
14.717590570449829,14.0
14.72191071510315,21.0
14.726529598236084,20.0
14.730145692825317,16.0
14.734724760055542,10.0
14.738335847854614,19.0
14.742787837982178,18.0
14.74711275100708,16.0
14.75171184539795,19.0
14.755300760269165,17.0
14.759827852249146,17.0
14.764063835144043,12.0
14.768620729446411,16.0
14.773091793060303,19.0
14.777499914169312,19.0
14.781843900680542,23.0
14.786340713500977,19.0
14.79075574874878,17.0
14.795246839523315,17.0
14.801819801330566,19.0
14.805935859680176,17.0
14.812627792358398,21.0
14.818802833557129,18.0
14.823319673538208,22.0
14.829731702804565,20.0
14.833753824234009,19.0
14.83748459815979,10.0
14.8436439037323,17.0
14.848071813583374,15.0
14.854362726211548,17.0
14.860366821289062,17.0
14.864685773849487,23.0
14.871158599853516,18.0
14.877381801605225,18.0
14.881732702255249,18.0
14.885550737380981,19.0
14.88908576965332,17.0
14.892948865890503,12.0
14.896479845046997,17.0
14.900300741195679,13.0
14.903897762298584,20.0
14.909743785858154,19.0
14.913692712783813,18.0
14.917651891708374,18.0
14.921311855316162,17.0
14.927327871322632,18.0
14.931683778762817,17.0
14.935666799545288,18.0
14.939175844192505,17.0
14.94586181640625,19.0
14.951985836029053,13.0
14.956394910812378,18.0
14.962546825408936,18.0
14.968554973602295,18.0
14.972545623779297,20.0
14.979146957397461,20.0
14.985204935073853,15.0
14.98933458328247,11.0
14.995777606964111,15.0
15.001838684082031,20.0
15.005892753601074,23.0
15.012449741363525,22.0
15.018523693084717,18.0
15.02261471748352,18.0
15.029234886169434,18.0
15.035204648971558,19.0
15.039208889007568,19.0
15.045838832855225,19.0
15.052011728286743,20.0
15.056002616882324,17.0
15.062679767608643,20.0
15.068790674209595,16.0
15.073256969451904,17.0
15.079556703567505,12.0
15.083571910858154,21.0
15.087292909622192,20.0
15.093286752700806,18.0
15.097310781478882,19.0
15.101581811904907,19.0
15.105283737182617,13.0
15.109163761138916,18.0
15.112753868103027,18.0
15.118725776672363,18.0
15.123085737228394,22.0
15.129393815994263,12.0
15.135422945022583,18.0
15.139803886413574,16.0
15.146070718765259,20.0
15.15004277229309,18.0
15.15367078781128,19.0
15.157320976257324,13.0
15.16110897064209,17.0
15.164788961410522,16.0
15.171064615249634,18.0
15.177135705947876,16.0
15.18148684501648,17.0
15.187896728515625,16.0
15.19198989868164,17.0
15.1956627368927,19.0
15.201661825180054,22.0
15.205779790878296,15.0
15.212406635284424,19.0
15.218439817428589,14.0
15.222538948059082,18.0
15.229211807250977,18.0
15.235183715820312,17.0
15.239287614822388,9.0
15.24571681022644,20.0
15.251813888549805,13.0
15.25578761100769,17.0
15.262232780456543,16.0
15.268173694610596,18.0
15.272113800048828,17.0
15.276091814041138,18.0
15.279796838760376,17.0
15.283873796463013,18.0
15.287714719772339,20.0
15.294166564941406,16.0
15.298910856246948,16.0
15.302912950515747,20.0
15.306818723678589,18.0
15.313217639923096,12.0
15.317309856414795,15.0
15.320973634719849,19.0
15.326973915100098,16.0
15.33138370513916,16.0
15.337636709213257,18.0
15.343724727630615,18.0
15.34810495376587,16.0
15.354482889175415,16.0
15.35848593711853,17.0
15.362155675888062,17.0
15.368135929107666,18.0
15.372203588485718,17.0
15.376157760620117,18.0
15.379798650741577,17.0
15.383709907531738,19.0
15.387388944625854,17.0
15.393435716629028,22.0
15.39759373664856,18.0
15.404292821884155,19.0
15.41055679321289,16.0
15.415040969848633,18.0
15.421369791030884,18.0
15.425407886505127,16.0
15.42909574508667,15.0
15.435117721557617,18.0
15.439198970794678,16.0
15.445916891098022,17.0
15.451910734176636,19.0
15.455988883972168,11.0
15.462622880935669,18.0
15.46875286102295,15.0
15.473065853118896,15.0
15.479105710983276,11.0
15.48535966873169,16.0
15.489734888076782,18.0
15.49593186378479,16.0
15.501978874206543,20.0
15.50599479675293,18.0
15.512396812438965,19.0
15.518602848052979,10.0
15.52262568473816,16.0
15.529025793075562,19.0
15.534998655319214,16.0
15.538979768753052,16.0
15.54299283027649,19.0
15.546513795852661,15.0
15.55246877670288,13.0
15.556712865829468,17.0
15.560722827911377,18.0
15.564182758331299,22.0
15.570561647415161,15.0
15.57659387588501,15.0
15.580511808395386,17.0
15.584531784057617,20.0
15.588140726089478,18.0
15.59203577041626,12.0
15.59562087059021,22.0
15.601517677307129,20.0
15.60556173324585,18.0
15.609643697738647,17.0
15.61362361907959,15.0
15.617560625076294,13.0
15.621060848236084,17.0
15.624927997589111,26.0
15.628499984741211,18.0
15.632187843322754,15.0
15.635893821716309,17.0
15.639557838439941,11.0
15.645680904388428,17.0
15.651851892471313,15.0
15.655927658081055,19.0
15.662645816802979,17.0
15.668854713439941,17.0
15.673305749893188,10.0
15.679572820663452,16.0
15.683695793151855,18.0
15.687459707260132,14.0
15.6935396194458,16.0
15.697670698165894,18.0
15.704477787017822,15.0
15.708573818206787,18.0
15.712231874465942,15.0
15.718308687210083,19.0
15.722388982772827,15.0
15.726473808288574,17.0
15.730076789855957,14.0
15.733930826187134,19.0
15.737607717514038,19.0
15.743558883666992,17.0
15.747639656066895,14.0
15.754371643066406,18.0
15.760284900665283,17.0
15.764235973358154,17.0
15.77080488204956,15.0
15.776848793029785,20.0
15.780803680419922,17.0
15.787510633468628,13.0
15.793714761734009,17.0
15.798200845718384,16.0
15.804497718811035,17.0
15.808570861816406,10.0
15.8121919631958,17.0
15.81814193725586,14.0
15.822203874588013,18.0
15.826485872268677,19.0
15.83005690574646,19.0
15.833905935287476,17.0
15.837514877319336,17.0
15.843486785888672,12.0
15.847495794296265,19.0
15.854232788085938,16.0
15.860336780548096,17.0
15.86478066444397,18.0
15.870999813079834,17.0
15.877030849456787,16.0
15.881011962890625,19.0
15.888047695159912,14.0
15.892133712768555,15.0
15.895878791809082,19.0
15.901938915252686,14.0
15.906388998031616,9.0
15.912725925445557,16.0
15.918852806091309,7.0
15.923238754272461,17.0
15.929619789123535,7.0
15.933633804321289,18.0
15.937280893325806,19.0
15.943403720855713,19.0
15.947524785995483,19.0
15.954168796539307,19.0
15.960431814193726,19.0
15.964756965637207,18.0
15.968578815460205,14.0
15.972119808197021,19.0
15.975958585739136,11.0
15.979529857635498,17.0
15.985434770584106,12.0
15.989912748336792,19.0
15.996320962905884,16.0
16.000353574752808,17.0
16.004023790359497,17.0
16.010138750076294,15.0
16.01423168182373,16.0
16.020861864089966,18.0
16.026888847351074,12.0
16.03096079826355,14.0
16.037694931030273,15.0
16.043906688690186,14.0
16.048195838928223,17.0
16.054223775863647,9.0
16.058457851409912,17.0
16.062337636947632,14.0
16.06841492652893,17.0
16.072423934936523,19.0
16.076708793640137,13.0
16.080309867858887,18.0
16.08426284790039,20.0
16.087966918945312,12.0
16.094059705734253,19.0
16.098623991012573,20.0
16.102587699890137,11.0
16.106464862823486,17.0
16.112843990325928,17.0
16.11687660217285,17.0
16.12053871154785,12.0
16.126455783843994,17.0
16.130478858947754,8.0
16.134705781936646,16.0
16.138344764709473,10.0
16.14221692085266,16.0
16.145861864089966,15.0
16.151939630508423,14.0
16.1563618183136,19.0
16.162619829177856,17.0
16.16874861717224,16.0
16.173146724700928,20.0
16.179317951202393,15.0
16.183355808258057,15.0
16.187123775482178,9.0
16.19322967529297,17.0
16.197420597076416,16.0
16.20162272453308,38.0
16.205352783203125,17.0
16.209235906600952,15.0
16.212896823883057,13.0
16.216777801513672,25.0
16.220491886138916,16.0
16.22644567489624,20.0
16.23053789138794,12.0
16.23455262184143,16.0
16.238228797912598,16.0
16.24210262298584,15.0
16.245791912078857,22.0
16.251752853393555,14.0
16.25576877593994,18.0
16.26235795021057,12.0
16.268524646759033,15.0
16.27263569831848,9.0
16.27937364578247,16.0
16.28562092781067,18.0
16.29010272026062,13.0
16.29404067993164,9.0
16.297674894332886,16.0
16.304075956344604,21.0
16.310242652893066,16.0
16.31421685218811,16.0
16.32069683074951,15.0
16.326644897460938,12.0
16.330925703048706,15.0
16.337750673294067,18.0
16.34400773048401,15.0
16.3486647605896,19.0
16.352497816085815,14.0
16.35624384880066,17.0
16.36260199546814,12.0
16.36867880821228,16.0
16.373066902160645,13.0
16.379238843917847,18.0
16.385310888290405,14.0
16.389819860458374,17.0
16.396260738372803,17.0
16.400346755981445,18.0
16.404095888137817,15.0
16.41011095046997,16.0
16.414090871810913,16.0
16.418092727661133,17.0
16.42171859741211,14.0
16.425625801086426,18.0
16.429284811019897,15.0
16.435187816619873,17.0
16.43930697441101,13.0
16.44609260559082,20.0
16.452229738235474,16.0
16.45665192604065,15.0
16.46043372154236,12.0
16.463965892791748,16.0
16.467864751815796,15.0
16.4714138507843,15.0
16.475294828414917,11.0
16.4788978099823,18.0
16.48489761352539,16.0
16.48913884162903,9.0
16.495773792266846,18.0
16.50202488899231,15.0
16.506420850753784,17.0
16.512645721435547,15.0
16.51872682571411,16.0
16.523103952407837,12.0
16.529631853103638,18.0
16.53363585472107,12.0
16.53730273246765,16.0
16.543295860290527,14.0
16.54738187789917,20.0
16.551437616348267,15.0
16.55505681037903,19.0
16.55893564224243,10.0
16.562578916549683,15.0
16.56855082511902,13.0
16.57265567779541,14.0
16.579349994659424,14.0
16.585442781448364,16.0
16.589900732040405,9.0
16.596311807632446,15.0
16.60040593147278,9.0
16.604055643081665,15.0
16.610013961791992,19.0
16.614266872406006,14.0
16.618529796600342,8.0
16.622132778167725,13.0
16.626043796539307,17.0
16.62968873977661,14.0
16.633566856384277,15.0
16.63723373413086,15.0
16.643133878707886,19.0
16.64726972579956,16.0
16.651304960250854,7.0
16.65495276451111,15.0
16.658769845962524,14.0
16.66240882873535,18.0
16.668487787246704,13.0
16.672584772109985,9.0
16.67940878868103,11.0
16.6853985786438,12.0
16.689859628677368,13.0
16.69632887840271,11.0
16.700414896011353,15.0
16.704084873199463,19.0
16.710112810134888,14.0
16.71418595314026,17.0
16.720969915390015,16.0
16.72723364830017,17.0
16.73158574104309,15.0
16.735442876815796,16.0
16.73899793624878,16.0
16.74287176132202,15.0
16.74649477005005,17.0
16.750388860702515,16.0
16.75402593612671,8.0
16.75996494293213,11.0
16.76400375366211,17.0
16.76804280281067,15.0
16.77166485786438,8.0
16.775502681732178,12.0
16.779154777526855,18.0
16.785029888153076,13.0
16.78905701637268,18.0
16.793124675750732,14.0
16.79671287536621,14.0
16.80056381225586,8.0
16.80419373512268,14.0
16.810163974761963,8.0
16.814274787902832,12.0
16.82097363471985,19.0
16.82711672782898,15.0
16.831427812576294,9.0
16.835211992263794,13.0
16.838732719421387,18.0
16.84258198738098,15.0
16.846213817596436,8.0
16.85215997695923,13.0
16.856557607650757,18.0
16.860386610031128,8.0
16.863933801651,14.0
16.868497848510742,16.0
16.87296772003174,14.0
16.879215717315674,17.0
16.885328769683838,15.0
16.889673948287964,8.0
16.89585781097412,17.0
16.9020516872406,14.0
16.906558990478516,19.0
16.910411834716797,8.0
16.91396188735962,15.0
16.917938947677612,15.0
16.92154598236084,9.0
16.925407886505127,16.0
16.929049730300903,15.0
16.934979677200317,11.0
16.939082860946655,20.0
16.94305181503296,13.0
16.94660782814026,13.0
16.95258593559265,12.0
16.956889867782593,7.0
16.960938930511475,15.0
16.96472191810608,13.0
16.97157883644104,16.0
16.976300716400146,13.0
16.980546712875366,13.0
16.98515772819519,8.0
16.989672899246216,17.0
16.99652671813965,12.0
17.00118398666382,17.0
17.00545883178711,14.0
17.01008367538452,14.0
17.01364278793335,9.0
17.017501831054688,10.0
17.021028757095337,16.0
17.025579690933228,14.0
17.030033826828003,11.0
17.03475785255432,15.0
17.039017915725708,16.0
17.043596029281616,16.0
17.048044681549072,9.0
17.05498695373535,15.0
17.059656858444214,17.0
17.063984870910645,16.0
17.06860065460205,15.0
17.073071718215942,9.0
17.07996892929077,14.0
17.084592819213867,16.0
17.088249683380127,8.0
17.092106819152832,15.0
17.095722913742065,9.0
17.10235285758972,18.0
17.10672688484192,15.0
17.110508680343628,8.0
17.114139795303345,17.0
17.120973825454712,13.0
17.127118825912476,15.0
17.131446599960327,15.0
17.137552738189697,16.0
17.143590927124023,13.0
17.14798879623413,18.0
17.154412746429443,14.0
17.16055178642273,11.0
17.164905786514282,20.0
17.168720722198486,11.0
17.172285795211792,16.0
17.17622971534729,9.0
17.17976665496826,14.0
17.18421459197998,21.0
17.188548803329468,14.0
17.193123817443848,12.0
17.197450876235962,9.0
17.204023599624634,16.0
17.210203886032104,13.0
17.21429681777954,14.0
17.221051692962646,16.0
17.225303649902344,16.0
17.229134798049927,8.0
17.233141899108887,16.0
17.236841917037964,7.0
17.240615844726562,13.0
17.24451184272766,16.0
17.24828791618347,16.0
17.25452184677124,16.0
17.26077890396118,9.0
17.265118837356567,15.0
17.26890778541565,12.0
17.272464752197266,16.0
17.279263973236084,15.0
17.28519582748413,12.0
17.289188861846924,9.0
17.29572868347168,17.0
17.301833868026733,22.0
17.305945873260498,16.0
17.31240177154541,17.0
17.318618774414062,8.0
17.322664976119995,15.0
17.329322814941406,15.0
17.33529496192932,14.0
17.339743852615356,14.0
17.346177577972412,10.0
17.352187871932983,14.0
17.356488943099976,15.0
17.36263084411621,12.0
17.368778944015503,14.0
17.37301278114319,18.0
17.379408836364746,18.0
17.38586688041687,13.0
17.390467643737793,8.0
17.394648790359497,14.0
17.398899793624878,15.0
17.402828693389893,12.0
17.406577825546265,15.0
17.412771701812744,14.0
17.418730974197388,9.0
17.42314863204956,15.0
17.42940068244934,16.0
17.43535876274109,14.0
17.439735651016235,15.0
17.44587278366089,10.0
17.45172095298767,14.0
17.4556667804718,18.0
17.459685802459717,15.0
17.463318586349487,14.0
17.46716594696045,8.0
17.47082495689392,13.0
17.476823806762695,18.0
17.48097276687622,18.0
17.48743772506714,12.0
17.493651866912842,14.0
17.498045921325684,7.0
17.504206657409668,14.0
17.510276794433594,16.0
17.514726877212524,10.0
17.521095752716064,15.0
17.52528166770935,12.0
17.529096841812134,14.0
17.535037755966187,12.0
17.539068937301636,7.0
17.54311966896057,15.0
17.54670000076294,7.0
17.55061984062195,12.0
17.554219722747803,9.0
17.55844283103943,13.0
17.5624098777771,16.0
17.56657886505127,15.0
17.57041096687317,9.0
17.5763578414917,18.0
17.580390691757202,8.0
17.584561824798584,14.0
17.588282823562622,9.0
17.59224772453308,14.0
17.596080780029297,13.0
17.600104808807373,18.0
17.603909730911255,14.0
17.609936714172363,13.0
17.614806652069092,16.0
17.618748903274536,14.0
17.62242078781128,12.0
17.626381635665894,13.0
17.6300687789917,14.0
17.634031772613525,18.0
17.637683868408203,13.0
17.64365267753601,10.0
17.648103952407837,15.0
17.65201163291931,14.0
17.655611753463745,16.0
17.659579753875732,12.0
17.663244009017944,15.0
17.667141675949097,15.0
17.670828580856323,16.0
17.67677593231201,15.0
17.680930614471436,13.0
17.68760585784912,16.0
17.69386863708496,15.0
17.69829773902893,11.0
17.702176809310913,16.0
17.705750703811646,16.0
17.70962882041931,7.0
17.71320867538452,14.0
17.717042922973633,18.0
17.720664739608765,14.0
17.726505994796753,9.0
17.730461835861206,14.0
17.73451280593872,17.0
17.738102674484253,14.0
17.744013786315918,10.0
17.748339891433716,15.0
17.754580974578857,15.0
17.758583784103394,14.0
17.762234687805176,12.0
17.76814579963684,16.0
17.77221179008484,8.0
17.776204586029053,15.0
17.77976679801941,11.0
17.783636808395386,17.0
17.78726577758789,9.0
17.793203830718994,14.0
17.797287940979004,15.0
17.801337718963623,18.0
17.80497980117798,11.0
17.809544801712036,15.0
17.813860654830933,15.0
17.818350791931152,10.0
17.822616815567017,16.0
17.829861879348755,19.0
17.834494829177856,13.0
17.838801860809326,9.0
17.84336566925049,14.0
17.847641706466675,17.0
17.854811906814575,12.0
17.859492778778076,10.0
17.86379384994507,19.0
17.86834192276001,8.0
17.872607946395874,14.0
17.879652738571167,12.0
17.884357690811157,17.0
17.888688802719116,8.0
17.89325785636902,15.0
17.897507667541504,12.0
17.904552936553955,14.0
17.90931987762451,15.0
17.91367483139038,17.0
17.91823387145996,14.0
17.922499656677246,18.0
17.929693937301636,14.0
17.93438982963562,16.0
17.93861675262451,13.0
17.9431049823761,14.0
17.947311878204346,15.0
17.951860904693604,17.0
17.95624279975891,12.0
17.962907791137695,8.0
17.967644929885864,16.0
17.97179388999939,9.0
17.97621464729309,17.0
17.98036766052246,9.0
17.98479986190796,13.0
17.989039659500122,16.0
17.99358582496643,8.0
17.998021841049194,13.0
18.004925966262817,11.0
18.009690761566162,17.0
18.014035940170288,9.0
18.01860785484314,14.0
18.023085832595825,12.0
18.02995777130127,17.0
18.03468894958496,13.0
18.039004802703857,15.0
18.042847871780396,13.0
18.04650378227234,16.0
18.0510516166687,12.0
18.054674863815308,13.0
18.058979749679565,16.0
18.062708854675293,17.0
18.067373752593994,17.0
18.071717739105225,10.0
18.07630681991577,12.0
18.080541849136353,17.0
18.084988832473755,15.0
18.088626861572266,12.0
18.09249472618103,12.0
18.096123695373535,9.0
18.100641012191772,16.0
18.10497260093689,12.0
18.109598875045776,15.0
18.113898992538452,9.0
18.11843776702881,16.0
18.122036933898926,14.0
18.12583875656128,14.0
18.129470825195312,8.0
18.13404083251953,15.0
18.13835859298706,14.0
18.14286780357361,16.0
18.147170782089233,10.0
18.151734590530396,17.0
18.156227827072144,14.0
18.16328763961792,10.0
18.16797971725464,14.0
18.17154359817505,17.0
18.175457000732422,14.0
18.17901587486267,9.0
18.185472011566162,15.0
18.18984866142273,14.0
18.19600772857666,16.0
18.20218801498413,10.0
18.20654582977295,13.0
18.212945699691772,18.0
18.2169988155365,17.0
18.220720767974854,10.0
18.226670742034912,15.0
18.230803966522217,18.0
18.23742175102234,14.0
18.243398904800415,14.0
18.247455835342407,18.0
18.254146814346313,8.0
18.26020884513855,16.0
18.26430892944336,15.0
18.268533945083618,17.0
18.272104740142822,8.0
18.276089668273926,17.0
18.27975869178772,11.0
18.283658981323242,16.0
18.28740358352661,14.0
18.293334007263184,16.0
18.297446727752686,13.0
18.30394172668457,19.0
18.3097186088562,15.0
18.31405282020569,15.0
18.318395853042603,14.0
18.322064876556396,17.0
18.325950860977173,14.0
18.329619884490967,19.0
18.335551977157593,14.0
18.339895725250244,15.0
18.343742847442627,15.0
18.347314834594727,18.0
18.351168870925903,14.0
18.35482692718506,17.0
18.358685731887817,15.0
18.36308193206787,17.0
18.367642879486084,16.0
18.37195873260498,16.0
18.376544952392578,16.0
18.38074493408203,16.0
18.385225772857666,15.0
18.38969087600708,15.0
18.396672010421753,17.0
18.401264905929565,19.0
18.4055757522583,14.0
18.41026473045349,16.0
18.414690732955933,17.0
18.421380758285522,14.0
18.426061630249023,15.0
18.430272817611694,16.0
18.434937715530396,10.0
18.43848967552185,17.0
18.443049907684326,8.0
18.4472918510437,8.0
18.451950788497925,17.0
18.456732749938965,9.0
18.46358299255371,21.0
18.468257665634155,16.0
18.472567796707153,9.0
18.47991681098938,14.0
18.484073877334595,13.0
18.488423824310303,18.0
18.49296998977661,16.0
18.497227907180786,7.0
18.50172472000122,10.0
18.50532364845276,15.0
18.509859800338745,15.0
18.51347780227661,15.0
18.51731300354004,14.0
18.520975828170776,17.0
18.52564573287964,16.0
18.529932022094727,10.0
18.53442883491516,16.0
18.53869891166687,16.0
18.54321265220642,15.0
18.54680585861206,10.0
18.551304817199707,14.0
18.554924726486206,13.0
18.559417724609375,15.0
18.563077688217163,15.0
18.567604780197144,16.0
18.571908712387085,14.0
18.576456785202026,5.0
18.58065366744995,15.0
18.584430694580078,16.0
18.58808183670044,16.0
18.592559814453125,18.0
18.596831798553467,17.0
18.601266860961914,18.0
18.605523824691772,12.0
18.610055923461914,18.0
18.614887952804565,14.0
18.619382619857788,16.0
18.623746633529663,15.0
18.62828278541565,18.0
18.634943962097168,16.0
18.639049768447876,19.0
18.64365577697754,16.0
18.648123741149902,9.0
18.65518879890442,15.0
18.65982675552368,15.0
18.66412901878357,18.0
18.671421766281128,10.0
18.676156759262085,17.0
18.679714679718018,14.0
18.684127807617188,15.0
18.6884286403656,16.0
18.693031787872314,16.0
18.69729781150818,15.0
18.701852798461914,17.0
18.70629572868347,14.0
18.71323275566101,22.0
18.717890739440918,19.0
18.722188711166382,15.0
18.726754665374756,15.0
18.731215715408325,11.0
18.73819875717163,16.0
18.742178678512573,14.0
18.745839834213257,17.0
18.750434637069702,14.0
18.75473690032959,18.0
18.75922465324402,15.0
18.7634859085083,16.0
18.768001794815063,12.0
18.772289752960205,14.0
18.776793718338013,17.0
18.780945777893066,20.0
18.788126945495605,16.0
18.792792797088623,8.0
18.79706859588623,15.0
18.80164885520935,13.0
18.80592679977417,16.0
18.81231379508972,15.0
18.818418741226196,16.0
18.822423696517944,15.0
18.82639789581299,18.0
18.830013751983643,7.0
18.83384656906128,14.0
18.837495803833008,16.0
18.843472719192505,18.0
18.84760284423828,16.0
18.854286670684814,14.0
18.86026167869568,18.0
18.864245891571045,13.0
18.87086582183838,13.0
18.876888751983643,6.0
18.880929708480835,15.0
18.887390851974487,15.0
18.89355969429016,16.0
18.897615671157837,16.0
18.90416669845581,10.0
18.910183906555176,15.0
18.91426372528076,13.0
18.920875787734985,18.0
18.926934719085693,17.0
18.931333780288696,20.0
18.937527656555176,13.0
18.941566944122314,15.0
18.945239782333374,17.0
18.94894790649414,15.0
18.952777862548828,10.0
18.956490993499756,14.0
18.962820768356323,13.0
18.968772649765015,14.0
18.973163604736328,19.0
18.979360818862915,16.0
18.985657691955566,12.0
18.990286827087402,18.0
18.99424982070923,22.0
18.998015880584717,14.0
19.004432678222656,15.0
19.010498762130737,13.0
19.014898777008057,17.0
19.01874876022339,15.0
19.022310733795166,16.0
19.026269912719727,13.0
19.029907941818237,18.0
19.03374171257019,15.0
19.03740167617798,19.0
19.04344391822815,7.0
19.047565698623657,13.0
19.054184913635254,18.0
19.060243844985962,17.0
19.064666748046875,14.0
19.070809841156006,15.0
19.076887607574463,15.0
19.081323623657227,16.0
19.08771300315857,16.0
19.09388279914856,12.0
19.098331689834595,16.0
19.10216760635376,18.0
19.105785846710205,17.0
19.112422704696655,14.0
19.118469715118408,11.0
19.12254285812378,17.0
19.129090785980225,5.0
19.13519787788391,15.0
19.139278650283813,14.0
19.145848751068115,0.0
19.15190887451172,17.0
19.156346797943115,16.0
19.162765741348267,17.0
19.166807651519775,14.0
19.170438766479492,14.0
19.176427602767944,19.0
19.18051290512085,15.0
19.184577703475952,14.0
19.188294887542725,9.0
19.192262887954712,11.0
19.195977926254272,16.0
19.201982975006104,14.0
19.20647668838501,19.0
19.212933778762817,15.0
19.21697688102722,9.0
19.22063159942627,16.0
19.226593732833862,18.0
19.23071002960205,13.0
19.234699964523315,15.0
19.23832869529724,19.0
19.24220585823059,14.0
19.245876789093018,17.0
19.251917839050293,10.0
19.255943775177002,10.0
19.262560844421387,15.0
19.2685968875885,9.0
19.27312684059143,14.0
19.277079820632935,14.0
19.280712842941284,17.0
19.28471279144287,12.0
19.288386821746826,8.0
19.292312622070312,14.0
19.29604983329773,16.0
19.302124738693237,12.0
19.306599855422974,15.0
19.310394763946533,17.0
19.313920974731445,13.0
19.31781768798828,14.0
19.321456909179688,13.0
19.32532787322998,8.0
19.328990936279297,14.0
19.334946632385254,14.0
19.339059829711914,13.0
19.343092918395996,16.0
19.34669280052185,14.0
19.350565671920776,17.0
19.35421895980835,13.0
19.360217809677124,15.0
19.364256858825684,17.0
19.37088370323181,14.0
19.376929759979248,13.0
19.381327867507935,15.0
19.387715816497803,14.0
19.393808841705322,14.0
19.39818286895752,20.0
19.402034759521484,8.0
19.40558695793152,17.0
19.409499883651733,12.0
19.413127899169922,13.0
19.41699981689453,11.0
19.420637845993042,16.0
19.426488637924194,6.0
19.43057155609131,12.0
19.43455171585083,16.0
19.438171863555908,16.0
19.44201970100403,16.0
19.44564986228943,14.0
19.451599836349487,13.0
19.455691814422607,16.0
19.459667921066284,12.0
19.4632728099823,10.0
19.469154596328735,14.0
19.47342276573181,14.0
19.47717571258545,14.0
19.48067879676819,15.0
19.48448157310486,12.0
19.48798179626465,15.0
19.491811752319336,9.0
19.495352745056152,15.0
19.499030590057373,15.0
19.503042697906494,16.0
19.506894826889038,12.0
19.511408805847168,11.0
19.515803813934326,14.0
19.520400762557983,14.0
19.525219678878784,17.0
19.52955961227417,8.0
19.53402590751648,16.0
19.5383517742157,16.0
19.542869806289673,16.0
19.547096729278564,14.0
19.551604986190796,15.0
19.555843830108643,15.0
19.563119888305664,15.0
19.567797899246216,8.0
19.572009801864624,15.0
19.576480865478516,14.0
19.580683946609497,3.0
19.585079669952393,14.0
19.58953881263733,13.0
19.596603870391846,18.0
19.601314783096313,14.0
19.605548620224,16.0
19.610012769699097,15.0
19.614543676376343,15.0
19.619242906570435,12.0
19.623636960983276,10.0
19.62807559967041,15.0
19.63241982460022,15.0
19.63690495491028,13.0
19.64360284805298,15.0
19.648619651794434,15.0
19.65312099456787,10.0
19.659838914871216,14.0
19.66495680809021,9.0
19.66939687728882,13.0
19.673760890960693,16.0
19.678170680999756,14.0
19.684786796569824,12.0
19.689891815185547,19.0
19.696624755859375,15.0
19.701361894607544,7.0
19.70568585395813,15.0
19.710259914398193,15.0
19.714695930480957,17.0
19.719120740890503,13.0
19.72352886199951,13.0
19.72802186012268,7.0
19.732366800308228,16.0
19.736814737319946,9.0
19.74350070953369,11.0
19.748551845550537,17.0
19.753071784973145,14.0
19.75743579864502,17.0
19.761871814727783,17.0
19.76849889755249,14.0
19.772637844085693,18.0
19.779209852218628,14.0
19.785155773162842,16.0
19.789272785186768,9.0
19.79608678817749,14.0
19.802233695983887,9.0
19.806797742843628,16.0
19.810659646987915,16.0
19.814260959625244,14.0
19.820766925811768,16.0
19.82685375213623,12.0
19.830972909927368,14.0
19.83757781982422,14.0
19.84360671043396,8.0
19.848017930984497,18.0
19.854349613189697,15.0
19.860686779022217,15.0
19.865137815475464,15.0
19.86902666091919,11.0
19.872605800628662,16.0
19.87927484512329,15.0
19.88530468940735,8.0
19.889768838882446,15.0
19.89617896080017,8.0
19.902196884155273,13.0
19.906466722488403,12.0
19.91256594657898,19.0
19.91862988471985,11.0
19.922988653182983,17.0
19.92903780937195,9.0
19.933562755584717,15.0
19.937363862991333,17.0
19.941951990127563,15.0
19.94590473175049,16.0
19.949947834014893,15.0
19.954091787338257,13.0
19.958176851272583,14.0
19.961941957473755,16.0
19.965672969818115,8.0
19.969579696655273,16.0
19.97331976890564,13.0
19.977158784866333,13.0
19.98072385787964,10.0
19.984686851501465,14.0
19.988444805145264,11.0
19.99239182472229,16.0
19.996071815490723,16.0
20.002091646194458,15.0
20.006393671035767,13.0
20.01247262954712,17.0
20.018451929092407,15.0
20.022483825683594,15.0
20.029199838638306,15.0
20.035287618637085,14.0
20.039681673049927,15.0
20.045974016189575,14.0
20.0520179271698,14.0
20.056691884994507,15.0
20.060990810394287,9.0
20.064833641052246,12.0
20.068675756454468,8.0
20.072244882583618,14.0
20.076172590255737,13.0
20.079816818237305,15.0
20.083773851394653,8.0
20.087522745132446,14.0
20.093597888946533,17.0
20.09807586669922,9.0
20.104424953460693,16.0
20.10852575302124,16.0
20.112209796905518,14.0
20.118106842041016,10.0
20.122208833694458,13.0
20.126205921173096,16.0
20.129814624786377,16.0
20.13370680809021,16.0
20.13736581802368,17.0
20.143358945846558,14.0
20.14743399620056,8.0
20.153770923614502,10.0
20.159766674041748,16.0
20.163731813430786,15.0
20.167696714401245,15.0
20.1712167263031,16.0
20.175058841705322,12.0
20.178727865219116,14.0
20.184523820877075,17.0
20.188690900802612,15.0
20.19273281097412,17.0
20.19645380973816,17.0
20.200316905975342,16.0
20.203979969024658,15.0
20.209852933883667,15.0
20.213908910751343,19.0
20.21786594390869,13.0
20.221494674682617,10.0
20.22534489631653,15.0
20.229007720947266,14.0
20.23483681678772,18.0
20.238940715789795,16.0
20.24296498298645,16.0
20.24657678604126,16.0
20.250383853912354,15.0
20.25406265258789,17.0
20.26007390022278,8.0
20.26417374610901,18.0
20.270801782608032,9.0
20.276821851730347,16.0
20.280950784683228,14.0
20.287467002868652,16.0
20.29146385192871,17.0
20.29523468017578,17.0
20.298950910568237,17.0
20.302721738815308,16.0
20.306450843811035,18.0
20.313628911972046,16.0
20.31839895248413,14.0
20.322590827941895,17.0
20.32999277114868,10.0
20.334030628204346,17.0
20.337679862976074,14.0
20.34222984313965,9.0
20.346556901931763,18.0
20.35109567642212,16.0
20.355329751968384,14.0
20.359867811203003,20.0
20.364182710647583,14.0
20.371375799179077,14.0
20.375934839248657,17.0
20.380165815353394,11.0
20.384639978408813,15.0
20.38896679878235,15.0
20.39351773262024,17.0
20.39795994758606,17.0
20.40496587753296,16.0
20.409669876098633,10.0
20.413985013961792,17.0
20.41852593421936,13.0
20.422956705093384,17.0
20.429659843444824,15.0
20.433706998825073,17.0
20.43733286857605,7.0
20.443309783935547,15.0
20.447375774383545,14.0
20.45142388343811,16.0
20.455012798309326,14.0
20.458930730819702,15.0
20.462578773498535,17.0
20.468564987182617,13.0
20.47261691093445,14.0
20.479777574539185,18.0
20.483698844909668,10.0
20.48733377456665,9.0
20.49396562576294,13.0
20.498998641967773,16.0
20.503448724746704,11.0
20.51008677482605,14.0
20.515166759490967,16.0
20.519542694091797,14.0
20.52326774597168,11.0
20.529393911361694,14.0
20.53536367416382,18.0
20.539320707321167,16.0
20.545763731002808,14.0
20.55007791519165,16.0
20.55373477935791,16.0
20.55995273590088,16.0
20.564132690429688,15.0
20.56868076324463,10.0
20.57247281074524,18.0
20.57945680618286,15.0
20.584009885787964,15.0
20.58800482749939,13.0
20.59200882911682,14.0
20.59564185142517,15.0
20.60142183303833,16.0
20.605403900146484,13.0
20.609399795532227,14.0
20.61309790611267,12.0
20.617326736450195,14.0
20.620966911315918,16.0
20.626914739608765,8.0
20.630952835083008,15.0
20.63749885559082,16.0
20.64351177215576,7.0
20.647600889205933,15.0
20.654245853424072,11.0
20.660329818725586,17.0
20.664706707000732,16.0
20.671066761016846,15.0
20.677249670028687,9.0
20.681619882583618,16.0
20.685545921325684,15.0
20.689170837402344,15.0
20.69574284553528,14.0
20.70183491706848,20.0
20.705912828445435,10.0
20.712512016296387,14.0
20.71865177154541,18.0
20.723083972930908,12.0
20.726921796798706,14.0
20.73047184944153,14.0
20.734415769577026,10.0
20.738025903701782,16.0
20.7439968585968,13.0
20.74827790260315,14.0
20.754478693008423,18.0
20.760594844818115,15.0
20.764994621276855,17.0
20.768844604492188,17.0
20.772409677505493,15.0
20.77629280090332,8.0
20.779926776885986,16.0
20.783779621124268,15.0
20.787492752075195,17.0
20.793585777282715,13.0
20.79807996749878,22.0
20.804410696029663,16.0
20.810624837875366,16.0
20.81515598297119,13.0
20.819039821624756,13.0
20.822625637054443,17.0
20.82926368713379,16.0
20.83530879020691,15.0
20.839746713638306,10.0
20.846089839935303,16.0
20.852142810821533,10.0
20.856483697891235,14.0
20.860315799713135,16.0
20.863886833190918,13.0
20.867828845977783,16.0
20.87148880958557,15.0
20.87530279159546,9.0
20.878870010375977,18.0
20.88476276397705,14.0
20.88895583152771,15.0
20.89302086830139,16.0
20.89674973487854,18.0
20.900651693344116,17.0
20.904221773147583,14.0
20.910103797912598,15.0
20.914111852645874,15.0
20.92065191268921,18.0
20.926661729812622,17.0
20.930693864822388,17.0
20.934715747833252,14.0
20.938381671905518,16.0
20.942248821258545,20.0
20.945860862731934,15.0
20.951834678649902,17.0
20.955930709838867,17.0
20.962442874908447,11.0
20.96860957145691,15.0
20.97300887107849,18.0
20.979201793670654,15.0
20.985230684280396,13.0
20.98966884613037,16.0
20.995973825454712,14.0
21.002190828323364,17.0
21.00659990310669,15.0
21.01275873184204,16.0
21.018786668777466,15.0
21.023138761520386,14.0
21.02917766571045,16.0
21.03519582748413,15.0
21.039220809936523,14.0
21.045909881591797,15.0
21.052007913589478,15.0
21.056320905685425,14.0
21.062675952911377,15.0
21.068647861480713,6.0
21.07262372970581,16.0
21.079120874404907,16.0
21.085216999053955,16.0
21.089263677597046,16.0
21.096011877059937,18.0
21.102253675460815,8.0
21.106679677963257,16.0
21.113006830215454,15.0
21.117116928100586,16.0
21.120815753936768,18.0
21.126823902130127,9.0
21.13088583946228,16.0
21.137508869171143,18.0
21.143520832061768,12.0
21.147482872009277,15.0
21.154094696044922,17.0
21.160165786743164,17.0
21.164204597473145,16.0
21.170841693878174,18.0
21.17681574821472,20.0
21.180846691131592,18.0
21.18752884864807,15.0
21.193628787994385,12.0
21.198088884353638,15.0
21.204465866088867,17.0
21.210500717163086,18.0
21.214916706085205,17.0
21.221263885498047,13.0
21.225236892700195,16.0
21.22892689704895,11.0
21.23483371734619,14.0
21.23893976211548,17.0
21.24299383163452,10.0
21.246612787246704,16.0
21.25044083595276,13.0
21.254096746444702,14.0
21.25995182991028,9.0
21.26407766342163,13.0
21.26803183555603,16.0
21.271665811538696,16.0
21.275513648986816,17.0
21.279119729995728,11.0
21.2850558757782,18.0
21.289222717285156,17.0
21.295973777770996,10.0
21.302121877670288,13.0
21.30656886100769,14.0
21.312947750091553,15.0
21.31703495979309,14.0
21.320785760879517,15.0
21.326770782470703,15.0
21.330888748168945,15.0
21.337326765060425,16.0
21.343315839767456,14.0
21.347395658493042,17.0
21.351370811462402,17.0
21.35500478744507,13.0
21.358815908432007,15.0
21.36239266395569,15.0
21.368372917175293,18.0
21.372352838516235,17.0
21.376280784606934,10.0
21.379878759384155,15.0
21.383806943893433,11.0
21.387504816055298,11.0
21.39349389076233,15.0
21.39761781692505,15.0
21.40427279472351,14.0
21.410356998443604,5.0
21.414804935455322,19.0
21.4211208820343,11.0
21.42518663406372,16.0
21.428894758224487,17.0
21.434915781021118,15.0
21.438987016677856,15.0
21.442999601364136,9.0
21.446598768234253,15.0
21.450437784194946,16.0
21.45406985282898,18.0
21.46005082130432,8.0
21.464127779006958,17.0
21.470653772354126,13.0
21.476704835891724,14.0
21.480855703353882,19.0
21.48758292198181,14.0
21.49368977546692,18.0
21.49811577796936,15.0
21.50458860397339,11.0
21.50875973701477,16.0
21.512484788894653,17.0
21.518519639968872,10.0
21.522665977478027,15.0
21.52680492401123,17.0
21.530348777770996,0.0
21.534170866012573,17.0
21.537879705429077,13.0
21.541749954223633,18.0
21.545379638671875,16.0
21.55138874053955,15.0
21.555460691452026,13.0
21.55943274497986,15.0
21.56308388710022,17.0
21.568986892700195,10.0
21.573368787765503,16.0
21.57714080810547,11.0
21.580695629119873,16.0
21.584675788879395,15.0
21.58837080001831,19.0
21.592278003692627,15.0
21.595852613449097,13.0
21.60170292854309,14.0
21.605631828308105,18.0
21.609652996063232,16.0
21.613349676132202,12.0
21.618018627166748,15.0
21.621955633163452,16.0
21.626298666000366,14.0
21.63043189048767,14.0
21.635113954544067,10.0
21.63894557952881,17.0
21.643112897872925,16.0
21.647000789642334,14.0
21.652355670928955,19.0
21.656912803649902,17.0
21.66141676902771,15.0
21.668344736099243,17.0
21.673467874526978,15.0
21.67794370651245,16.0
21.682299852371216,16.0
21.68681287765503,15.0
21.69141387939453,16.0
21.695725679397583,16.0
21.700262784957886,8.0
21.704550743103027,14.0
21.70916986465454,16.0
21.7127788066864,7.0
21.717307806015015,15.0
21.72157073020935,16.0
21.72606897354126,10.0
21.73035979270935,16.0
21.734210729599,15.0
21.737839698791504,9.0
21.742363691329956,17.0
21.74665594100952,12.0
21.751226663589478,14.0
21.755470752716064,13.0
21.760028839111328,13.0
21.764310598373413,19.0
21.771674871444702,14.0
21.77630591392517,17.0
21.780516862869263,19.0
21.785010814666748,15.0
21.78930687904358,16.0
21.796629905700684,17.0
21.8012797832489,16.0
21.805522918701172,17.0
21.810091733932495,16.0
21.8145809173584,17.0
21.821592807769775,14.0
21.826311826705933,15.0
21.830633878707886,15.0
21.83527398109436,15.0
21.838920831680298,16.0
21.842776775360107,14.0
21.846446752548218,10.0
21.850992679595947,13.0
21.85526180267334,17.0
21.859784841537476,16.0
21.864105939865112,12.0
21.87138271331787,11.0
21.875967979431152,15.0
21.880209922790527,16.0
21.88470482826233,10.0
21.888990879058838,15.0
21.89349675178528,13.0
21.897925853729248,17.0
21.904964685440063,15.0
21.90896773338318,16.0
21.91261386871338,17.0
21.917147874832153,14.0
21.921445846557617,17.0
21.92596197128296,17.0
21.930237770080566,12.0
21.934749841690063,14.0
21.938995838165283,12.0
21.94355583190918,15.0
21.948051929473877,14.0
21.955156803131104,13.0
21.95982575416565,17.0
21.964090824127197,17.0
21.9712917804718,16.0
21.97592067718506,14.0
21.98014998435974,11.0
21.984587907791138,14.0
21.988868713378906,17.0
21.993372917175293,15.0
21.997569799423218,17.0
22.004815816879272,15.0
22.00947380065918,18.0
22.013741731643677,17.0
22.018276691436768,15.0
22.02186393737793,14.0
22.026461839675903,14.0
22.03073263168335,13.0
22.035244703292847,18.0
22.038861751556396,15.0
22.043383598327637,15.0
22.04698085784912,15.0
22.05092477798462,15.0
22.054457664489746,11.0
22.059399843215942,16.0
22.063745737075806,14.0
22.068297863006592,18.0
22.071924924850464,19.0
22.07648992538452,9.0
22.08000087738037,15.0
22.084622859954834,18.0
22.089013814926147,13.0
22.093673944473267,17.0
22.097293615341187,17.0
22.101802825927734,16.0
22.105429887771606,8.0
22.11002802848816,15.0
22.114303827285767,9.0
22.121606826782227,15.0
22.126327753067017,13.0
22.13060474395752,18.0
22.13521981239319,17.0
22.139676809310913,19.0
22.14669680595398,16.0
22.15069890022278,15.0
22.15439796447754,15.0
22.158954858779907,17.0
22.1632719039917,14.0
22.16783571243286,14.0
22.171432971954346,19.0
22.17596697807312,15.0
22.180166721343994,16.0
22.18464469909668,13.0
22.1889488697052,16.0
22.192794799804688,17.0
22.196415901184082,16.0
22.20091962814331,17.0
22.205216884613037,17.0
22.209709644317627,15.0
22.213992834091187,14.0
22.218541622161865,15.0
22.222962856292725,17.0
22.229938745498657,18.0
22.234625577926636,14.0
22.23887586593628,14.0
22.24343776702881,16.0
22.247905731201172,17.0
22.25489091873169,17.0
22.259533643722534,11.0
22.263874769210815,14.0
22.268439769744873,13.0
22.27290177345276,16.0
22.279822826385498,15.0
22.28442692756653,19.0
22.288763761520386,11.0
22.293306827545166,13.0
22.297562837600708,16.0
22.304174661636353,14.0
22.310218811035156,17.0
22.314260959625244,15.0
22.32070779800415,16.0
22.32667374610901,17.0
22.330630779266357,16.0
22.334664821624756,16.0
22.33850073814392,16.0
22.342556715011597,15.0
22.346275806427002,14.0
22.35026478767395,17.0
22.354071617126465,17.0
22.36023497581482,19.0
22.364246606826782,12.0
22.37110662460327,20.0
22.37713098526001,13.0
22.381451845169067,9.0
22.387573957443237,15.0
22.393718719482422,10.0
22.398133993148804,13.0
22.40457272529602,17.0
22.408527851104736,15.0
22.41220188140869,15.0
22.418068885803223,14.0
22.422147750854492,13.0
22.426272869110107,18.0
22.429852724075317,13.0
22.43370485305786,15.0
22.43731379508972,16.0
22.443331718444824,17.0
22.447380781173706,14.0
22.451368808746338,19.0
22.45500898361206,8.0
22.458833932876587,14.0
22.46317982673645,18.0
22.467727661132812,15.0
22.472062826156616,16.0
22.47658371925354,8.0
22.480087757110596,14.0
22.48450779914856,15.0
22.488797903060913,9.0
22.493372917175293,15.0
22.496959924697876,11.0
22.501449823379517,16.0
22.505025625228882,14.0
22.50951600074768,20.0
22.513149738311768,18.0
22.517594814300537,14.0
22.521779775619507,16.0
22.52629566192627,16.0
22.530462980270386,15.0
22.534969806671143,17.0
22.538480758666992,14.0
22.54296088218689,8.0
22.54715371131897,14.0
22.551652669906616,12.0
22.55593180656433,16.0
22.56311869621277,16.0
22.567179918289185,17.0
22.570722818374634,16.0
22.576714992523193,16.0
22.58054494857788,19.0
22.58535599708557,18.0
22.588968753814697,14.0
22.59356379508972,12.0
22.597994804382324,16.0
22.604987859725952,13.0
22.609660863876343,15.0
22.613171815872192,16.0
22.61809468269348,15.0
22.621890783309937,15.0
22.62656879425049,11.0
22.630185842514038,17.0
22.634769916534424,16.0
22.63841199874878,15.0
22.642920970916748,16.0
22.647218942642212,15.0
22.65177273750305,16.0
22.655321836471558,17.0
22.65983486175537,13.0
22.66339874267578,14.0
22.66827964782715,16.0
22.6726016998291,18.0
22.67967987060547,18.0
22.683629751205444,18.0
22.687885761260986,13.0
22.69258975982666,17.0
22.69692063331604,17.0
22.701605796813965,9.0
22.70590376853943,17.0
22.713424682617188,17.0
22.718261003494263,11.0
22.722519636154175,15.0
22.729955673217773,16.0
22.734262704849243,16.0
22.737817764282227,16.0
22.742329835891724,14.0
22.746649742126465,19.0
22.751163721084595,19.0
22.75541877746582,16.0
22.75988459587097,14.0
22.76405382156372,16.0
22.768560886383057,9.0
22.772864818572998,17.0
22.779722929000854,14.0
22.78460168838501,17.0
22.78892970085144,19.0
22.79353380203247,17.0
22.797972917556763,16.0
22.805226802825928,17.0
22.80934762954712,15.0
22.81302499771118,18.0
22.817535877227783,18.0
22.82187271118164,21.0
22.826449871063232,17.0
22.83065176010132,14.0
22.83525776863098,15.0
22.839693784713745,8.0
22.84681272506714,15.0
22.85154891014099,16.0
22.855780839920044,10.0
22.863175868988037,14.0
22.868117809295654,14.0
22.872408628463745,16.0
22.87689757347107,17.0
22.88124179840088,10.0
22.88838768005371,18.0
22.892380714416504,14.0
22.89600157737732,18.0
22.90046787261963,15.0
22.904719829559326,15.0
22.909249782562256,17.0
22.913575887680054,18.0
22.91746473312378,17.0
22.921743869781494,17.0
22.92626667022705,15.0
22.930511713027954,10.0
22.935014724731445,11.0
22.93859362602234,16.0
22.943119764328003,18.0
22.94739079475403,13.0
22.951862573623657,16.0
22.955370903015137,17.0
22.959914922714233,7.0
22.963502645492554,12.0
22.968055725097656,15.0
22.97162389755249,17.0
22.976157903671265,15.0
22.980331659317017,17.0
22.984801769256592,14.0
22.98911166191101,14.0
22.99612593650818,14.0
23.000224828720093,14.0
23.00378394126892,17.0
23.0097599029541,16.0
23.013661861419678,11.0
23.017875909805298,17.0
23.021394729614258,14.0
23.025904893875122,10.0
23.029408931732178,16.0
23.033873796463013,9.0
23.038030862808228,17.0
23.042552709579468,10.0
23.046757698059082,14.0
23.051289796829224,20.0
23.055484771728516,14.0
