time,emg
0.01821303367614746,780.0
0.03641700744628906,776.0
0.048265933990478516,769.0
0.05943179130554199,783.0
0.06995081901550293,786.0
0.07872390747070312,768.0
0.08970093727111816,786.0
0.10015296936035156,785.0
0.10892200469970703,780.0
0.11832690238952637,788.0
0.1291508674621582,786.0
0.13932490348815918,781.0
0.14956092834472656,775.0
0.1596689224243164,782.0
0.16918587684631348,771.0
0.17888092994689941,753.0
0.1888749599456787,744.0
0.198868989944458,754.0
0.20838594436645508,754.0
0.21881103515625,745.0
0.22847986221313477,749.0
0.23949313163757324,753.0
0.2496349811553955,751.0
0.25965404510498047,746.0
0.26908302307128906,758.0
0.2787659168243408,758.0
0.28982996940612793,756.0
0.2992429733276367,750.0
0.3092169761657715,754.0
0.3186459541320801,742.0
0.3293910026550293,733.0
0.33931994438171387,724.0
0.34955596923828125,724.0
0.35959696769714355,717.0
0.3690788745880127,716.0
0.37872791290283203,719.0
0.38991403579711914,716.0
0.3994448184967041,705.0
0.40955090522766113,721.0
0.41900205612182617,725.0
0.42870187759399414,713.0
0.4398047924041748,721.0
0.4493589401245117,723.0
0.4595158100128174,719.0
0.46901488304138184,716.0
0.4787261486053467,717.0
0.48987793922424316,717.0
0.49950408935546875,706.0
0.5097429752349854,698.0
0.5192990303039551,690.0
0.5287280082702637,691.0
0.5397500991821289,692.0
0.5501329898834229,687.0
0.5588970184326172,679.0
0.5683088302612305,690.0
0.5787448883056641,702.0
0.5899739265441895,690.0
0.5994968414306641,683.0
0.6096539497375488,692.0
0.6191449165344238,656.0
0.6287641525268555,688.0
0.6398787498474121,699.0
0.6494829654693604,686.0
0.6597449779510498,682.0
0.6692600250244141,672.0
0.6787698268890381,672.0
0.6898138523101807,656.0
0.7001137733459473,667.0
0.709028959274292,664.0
0.7184858322143555,661.0
0.7291488647460938,668.0
0.7391600608825684,664.0
0.7487521171569824,667.0
0.760077953338623,675.0
0.7688219547271729,679.0
0.7786967754364014,686.0
0.7888979911804199,683.0
0.7986547946929932,687.0
0.8084011077880859,683.0
0.8187398910522461,689.0
0.8286960124969482,693.0
0.8387539386749268,677.0
0.8494460582733154,664.0
0.8590588569641113,665.0
0.8685967922210693,659.0
0.8786458969116211,660.0
0.8882200717926025,665.0
0.8990309238433838,665.0
0.9098958969116211,661.0
0.9183127880096436,665.0
0.9293408393859863,679.0
0.939054012298584,683.0
0.9495398998260498,684.0
0.9595160484313965,682.0
0.969275712966919,686.0
0.9785540103912354,682.0
0.9896700382232666,683.0
0.9984979629516602,674.0
1.0093169212341309,675.0
1.0187089443206787,675.0
1.0295519828796387,671.0
1.0385818481445312,670.0
1.0495851039886475,669.0
1.0594007968902588,675.0
1.069307804107666,673.0
1.0786240100860596,674.0
1.0896518230438232,685.0
1.1000359058380127,678.0
1.1088387966156006,683.0
1.1193280220031738,688.0
1.1287319660186768,689.0
1.1399478912353516,695.0
1.1494479179382324,674.0
1.1596109867095947,675.0
1.1690690517425537,677.0
1.1786558628082275,688.0
1.189661979675293,672.0
1.199249029159546,667.0
1.2087140083312988,676.0
1.2192060947418213,671.0
1.2287001609802246,674.0
1.2397189140319824,676.0
1.2493617534637451,678.0
1.2596769332885742,663.0
1.2692310810089111,677.0
1.2786998748779297,676.0
1.289747953414917,679.0
1.300058126449585,680.0
1.3088939189910889,672.0
1.31827712059021,671.0
1.3287239074707031,668.0
1.3393220901489258,649.0
1.349564790725708,639.0
1.3594837188720703,656.0
1.3689100742340088,654.0
1.378464937210083,656.0
1.3893589973449707,655.0
1.3995461463928223,659.0
1.409562110900879,661.0
1.4190330505371094,672.0
1.4286749362945557,675.0
1.4397859573364258,674.0
1.4493649005889893,670.0
1.4596028327941895,667.0
1.4690659046173096,672.0
1.4786279201507568,670.0
1.4895610809326172,673.0
1.5000429153442383,659.0
1.5087249279022217,651.0
1.5191731452941895,649.0
1.5288050174713135,645.0
1.538801908493042,647.0
1.5500540733337402,648.0
1.558750867843628,648.0
1.5692219734191895,651.0
1.5787980556488037,653.0
1.5899698734283447,651.0
1.5995261669158936,653.0
1.6096680164337158,663.0
1.619149923324585,658.0
1.628692865371704,659.0
1.63972806930542,658.0
1.6492938995361328,656.0
1.659404993057251,651.0
1.6688480377197266,647.0
1.6795909404754639,646.0
1.6896288394927979,639.0
1.7000508308410645,642.0
1.7088139057159424,643.0
1.7193999290466309,633.0
1.7291259765625,636.0
1.7391080856323242,640.0
1.749634027481079,641.0
1.7597548961639404,639.0
1.769279956817627,642.0
1.778852939605713,650.0
1.78883695602417,650.0
1.7996490001678467,637.0
1.808863878250122,638.0
1.8193628787994385,647.0
1.829063892364502,635.0
1.839066982269287,630.0
1.8491828441619873,624.0
1.859748125076294,618.0
1.8692541122436523,620.0
1.8786969184875488,623.0
1.8897488117218018,630.0
1.9000859260559082,628.0
1.9088208675384521,623.0
1.9194071292877197,631.0
1.9290847778320312,635.0
1.939164161682129,642.0
1.9495649337768555,641.0
1.959632158279419,646.0
1.969148874282837,639.0
1.978705883026123,642.0
1.989786148071289,633.0
1.9993541240692139,630.0
2.0095558166503906,628.0
2.019016981124878,626.0
2.028641939163208,636.0
2.0398929119110107,628.0
2.0493249893188477,627.0
2.0594170093536377,629.0
2.0689280033111572,630.0
2.07857084274292,646.0
2.0896260738372803,614.0
2.100038766860962,641.0
2.108778953552246,649.0
2.1192398071289062,651.0
2.12870192527771,652.0
2.1397900581359863,643.0
2.1494319438934326,646.0
2.1595160961151123,639.0
2.168966054916382,621.0
2.178523063659668,633.0
2.189440965652466,632.0
2.199532985687256,620.0
2.2095389366149902,621.0
2.2190678119659424,623.0
2.2287018299102783,621.0
2.239715099334717,625.0
2.2501518726348877,632.0
2.258898973464966,636.0
2.268301010131836,625.0
2.2790088653564453,626.0
2.2890050411224365,628.0
2.2990739345550537,626.0
2.3097610473632812,635.0
2.319242000579834,631.0
2.3289918899536133,616.0
2.3388431072235107,617.0
2.349416971206665,616.0
2.359426975250244,616.0
2.3689467906951904,612.0
2.378556728363037,593.0
2.389565944671631,611.0
2.400103807449341,623.0
2.4088518619537354,627.0
2.419332981109619,631.0
2.42868709564209,618.0
2.4396889209747314,635.0
2.4500889778137207,644.0
2.4588379859924316,635.0
2.4682998657226562,636.0
2.478736162185669,625.0
2.489729881286621,625.0
2.5000998973846436,624.0
2.5088281631469727,615.0
2.5193588733673096,607.0
2.528994083404541,609.0
2.5389370918273926,606.0
2.5495219230651855,603.0
2.559520959854126,598.0
2.568967819213867,612.0
2.578555107116699,607.0
2.5896379947662354,611.0
2.6000497341156006,613.0
2.6088738441467285,623.0
2.61836314201355,628.0
2.6290669441223145,633.0
2.6390907764434814,632.0
2.6495490074157715,624.0
2.6594889163970947,618.0
2.668941020965576,610.0
2.678558826446533,608.0
2.6896159648895264,608.0
2.7000811100006104,601.0
2.708754777908325,602.0
2.719223976135254,597.0
2.7287659645080566,601.0
2.739910840988159,597.0
2.749423027038574,597.0
2.7594079971313477,596.0
2.768867015838623,602.0
2.7785069942474365,602.0
2.789510726928711,598.0
2.8000328540802,594.0
2.8087189197540283,602.0
2.819175958633423,597.0
2.828695058822632,582.0
2.8397939205169678,583.0
2.8493409156799316,582.0
2.859494924545288,568.0
2.868950843811035,573.0
2.8786399364471436,582.0
2.889709949493408,567.0
2.899338960647583,583.0
2.9094698429107666,564.0
2.9190049171447754,568.0
2.9286539554595947,583.0
2.939762830734253,581.0
2.950035810470581,585.0
2.9587268829345703,584.0
2.9691808223724365,575.0
2.978731870651245,576.0
2.9897310733795166,563.0
3.0000429153442383,575.0
3.0087249279022217,566.0
3.0192718505859375,547.0
3.0287458896636963,559.0
3.039846181869507,546.0
3.04937481880188,550.0
3.0595078468322754,548.0
3.0690417289733887,552.0
3.0787320137023926,547.0
3.0898680686950684,557.0
3.0993878841400146,558.0
3.1094861030578613,556.0
3.119014024734497,554.0
3.128680944442749,557.0
3.139918088912964,557.0
3.149512767791748,540.0
3.159543991088867,541.0
3.16908597946167,538.0
3.178765058517456,545.0
3.1887259483337402,534.0
3.1995370388031006,520.0
3.209475040435791,524.0
3.2189228534698486,527.0
3.2285408973693848,526.0
3.239644765853882,508.0
3.250046968460083,531.0
3.2588047981262207,534.0
3.269333839416504,537.0
3.279047966003418,510.0
3.288954019546509,548.0
3.299329996109009,540.0
3.3093678951263428,540.0
3.31882381439209,534.0
3.3295090198516846,546.0
3.339430809020996,527.0
3.349533796310425,524.0
3.359589099884033,522.0
3.369112968444824,525.0
3.3787128925323486,518.0
3.3897950649261475,519.0
3.399384021759033,522.0
3.4094948768615723,522.0
3.418954849243164,528.0
3.428302049636841,529.0
3.439188003540039,539.0
3.449604034423828,532.0
3.459705114364624,535.0
3.469172954559326,533.0
3.478717803955078,524.0
3.4897520542144775,532.0
3.5001111030578613,534.0
3.5089588165283203,527.0
3.5183658599853516,516.0
3.5288381576538086,519.0
3.539823055267334,519.0
3.5500879287719727,523.0
3.558881998062134,512.0
3.56836199760437,516.0
3.5790328979492188,527.0
3.588937997817993,530.0
3.598886728286743,538.0
3.608360767364502,538.0
3.6188337802886963,534.0
3.629638910293579,529.0
3.6397340297698975,538.0
3.650099992752075,526.0
3.658859968185425,535.0
3.668271064758301,524.0
3.678684949874878,523.0
3.689723014831543,514.0
3.700115919113159,514.0
3.7088818550109863,513.0
3.7182860374450684,510.0
3.7286899089813232,511.0
3.7396578788757324,525.0
3.749530076980591,525.0
3.7595489025115967,534.0
3.7690799236297607,526.0
3.7786858081817627,532.0
3.7897138595581055,535.0
3.8000328540802,535.0
3.808751106262207,532.0
3.819112777709961,502.0
3.8286898136138916,521.0
3.8397929668426514,514.0
3.8493199348449707,511.0
3.8594107627868652,509.0
3.8689210414886475,471.0
3.8785829544067383,507.0
3.8896067142486572,501.0
3.9000799655914307,476.0
3.908888101577759,515.0
3.918308973312378,514.0
3.9286839962005615,518.0
3.9398157596588135,524.0
3.949275016784668,514.0
3.9594521522521973,524.0
3.9689037799835205,531.0
3.97851300239563,532.0
3.989499807357788,517.0
4.000040769577026,510.0
4.0088210105896,506.0
4.019402980804443,508.0
4.029171943664551,506.0
4.039062023162842,500.0
4.04911994934082,500.0
4.059684991836548,500.0
4.069149971008301,493.0
4.078681945800781,495.0
4.08979606628418,499.0
4.098531007766724,494.0
4.109920978546143,509.0
4.1183249950408936,504.0
4.128675937652588,491.0
4.139706134796143,498.0
4.150032997131348,500.0
4.158359050750732,482.0
4.168755769729614,461.0
4.17946195602417,475.0
4.1893250942230225,471.0
4.199536085128784,463.0
4.20953893661499,459.0
4.219008922576904,452.0
4.228722810745239,452.0
4.238875150680542,457.0
4.249547004699707,459.0
4.260073900222778,459.0
4.268457889556885,473.0
4.279150009155273,469.0
4.289071083068848,465.0
4.2995288372039795,471.0
4.30962610244751,466.0
4.319093942642212,472.0
4.3286659717559814,468.0
4.339731931686401,458.0
4.350139141082764,454.0
4.358982086181641,456.0
4.368408918380737,422.0
4.379028797149658,456.0
4.38892388343811,455.0
4.399064064025879,456.0
4.40960693359375,454.0
4.41908597946167,466.0
4.428753137588501,467.0
4.439877986907959,461.0
4.449187994003296,464.0
4.459320068359375,467.0
4.468750953674316,465.0
4.479457855224609,463.0
4.489377975463867,459.0
4.499557018280029,456.0
4.509675025939941,450.0
4.519272804260254,449.0
4.528742790222168,454.0
4.53987193107605,451.0
4.549268960952759,449.0
4.559483051300049,451.0
4.56899094581604,454.0
4.57857084274292,463.0
4.589500904083252,472.0
4.599534034729004,474.0
4.6095499992370605,473.0
4.619017839431763,475.0
4.628671884536743,492.0
4.639631032943726,477.0
4.6498401165008545,468.0
4.65982985496521,475.0
4.669296979904175,483.0
4.679011106491089,473.0
4.689014911651611,461.0
4.699565887451172,470.0
4.709681034088135,468.0
4.719135999679565,471.0
4.728678941726685,465.0
4.739789009094238,464.0
4.750051975250244,474.0
4.758854866027832,480.0
4.769360065460205,485.0
4.779100179672241,481.0
4.789160966873169,477.0
4.799376964569092,477.0
4.809266805648804,476.0
4.818695783615112,468.0
4.829383850097656,426.0
4.839343070983887,462.0
4.849327087402344,457.0
4.859905004501343,452.0
4.868275880813599,441.0
4.878870010375977,437.0
4.8889319896698,435.0
4.89948296546936,435.0
4.909499883651733,403.0
4.91904878616333,445.0
4.928674936294556,444.0
4.939771890640259,446.0
4.949402093887329,449.0
4.959574937820435,446.0
4.969035863876343,445.0
4.978765964508057,425.0
4.988743782043457,449.0
4.999585866928101,448.0
5.00976300239563,440.0
5.019270896911621,431.0
5.028687953948975,434.0
5.039850950241089,438.0
5.049350023269653,434.0
5.059489011764526,448.0
5.069033861160278,448.0
5.078673839569092,444.0
5.089766025543213,459.0
5.099313020706177,460.0
5.109417915344238,467.0
5.118860960006714,476.0
5.129585027694702,477.0
5.139697790145874,475.0
5.150031089782715,470.0
5.158428192138672,462.0
5.168889045715332,470.0
5.178504943847656,471.0
5.18953275680542,472.0
5.199530839920044,439.0
5.2095959186553955,480.0
5.21906304359436,480.0
5.228665113449097,485.0
5.239624977111816,495.0
5.24954891204834,501.0
5.259737968444824,502.0
5.269266843795776,512.0
5.278695821762085,519.0
5.289709091186523,488.0
5.300031900405884,532.0
5.308809995651245,510.0
5.319325923919678,528.0
5.328672885894775,520.0
5.3397088050842285,519.0
5.3500800132751465,519.0
5.358844757080078,524.0
5.369334936141968,520.0
5.37910008430481,516.0
5.389132022857666,524.0
5.399158954620361,525.0
5.409735918045044,536.0
5.419241905212402,540.0
5.428680896759033,545.0
5.43973183631897,542.0
5.450037002563477,550.0
5.458817005157471,556.0
5.469308853149414,554.0
5.478728771209717,541.0
5.48975396156311,551.0
5.500046014785767,546.0
5.508745908737183,547.0
5.5192389488220215,545.0
5.5286948680877686,538.0
5.539941072463989,536.0
5.5495569705963135,543.0
5.559729814529419,543.0
5.5692138671875,545.0
5.578768968582153,554.0
5.589890003204346,561.0
5.599455833435059,557.0
5.609731912612915,566.0
5.619212865829468,575.0
5.628668785095215,572.0
5.63969874382019,578.0
5.649345874786377,585.0
5.6595659255981445,571.0
5.6690239906311035,565.0
5.678657054901123,561.0
5.689619779586792,563.0
5.700027704238892,560.0
5.708823919296265,558.0
5.719366073608398,565.0
5.729079961776733,566.0
5.739135980606079,568.0
5.749179840087891,568.0
5.759761095046997,572.0
5.76926589012146,545.0
5.7786948680877686,580.0
5.789777755737305,579.0
5.799270868301392,576.0
5.809540033340454,578.0
5.819076061248779,578.0
5.828758955001831,570.0
5.839822053909302,575.0
5.849272012710571,581.0
5.859409809112549,572.0
5.868863821029663,558.0
5.879654884338379,564.0
5.889770984649658,578.0
5.900027751922607,588.0
5.908785104751587,560.0
5.9192938804626465,585.0
5.928745985031128,584.0
5.939893960952759,591.0
5.949450969696045,597.0
5.95958399772644,589.0
5.969041109085083,594.0
5.978678941726685,587.0
5.9897778034210205,585.0
6.000091075897217,546.0
6.008894920349121,573.0
6.019439935684204,569.0
6.029147148132324,569.0
6.039010047912598,570.0
6.049085855484009,576.0
6.059715032577515,571.0
6.069169759750366,577.0
6.078670024871826,566.0
6.08975887298584,577.0
6.100024938583374,584.0
6.10882306098938,590.0
6.119323968887329,592.0
6.129065990447998,588.0
6.139103889465332,580.0
6.1491780281066895,592.0
6.159739017486572,577.0
6.1691858768463135,571.0
6.178664922714233,575.0
6.189726829528809,570.0
6.199284791946411,573.0
6.20946192741394,570.0
6.218939781188965,569.0
6.228502035140991,579.0
6.239504098892212,564.0
6.249547004699707,580.0
6.259681940078735,586.0
6.269121885299683,557.0
6.278666973114014,590.0
6.2897138595581055,586.0
6.300050973892212,588.0
6.3088319301605225,583.0
6.319347858428955,574.0
6.329041957855225,566.0
6.338905096054077,567.0
6.348987102508545,569.0
6.359646797180176,557.0
6.369096994400024,549.0
6.378673791885376,546.0
6.389607906341553,549.0
6.399537801742554,552.0
6.409677028656006,551.0
6.419249773025513,551.0
6.4287378787994385,557.0
6.439950942993164,577.0
6.449521780014038,557.0
6.459764003753662,568.0
6.469364881515503,558.0
6.479082822799683,554.0
6.489037990570068,542.0
6.4990339279174805,542.0
6.509569883346558,531.0
6.519071817398071,535.0
6.528668165206909,528.0
6.539668798446655,529.0
6.550036907196045,522.0
6.558788061141968,521.0
6.569286823272705,521.0
6.578711986541748,518.0
6.589752912521362,526.0
6.600029945373535,527.0
6.608847141265869,535.0
6.619349002838135,525.0
6.629040002822876,516.0
6.6389501094818115,519.0
6.648997068405151,513.0
6.659569025039673,514.0
6.669025897979736,511.0
6.678666830062866,499.0
6.6897618770599365,494.0
6.699336767196655,488.0
6.709478855133057,490.0
6.718973875045776,488.0
6.72860312461853,489.0
6.739583969116211,487.0
6.74953293800354,459.0
6.759587049484253,491.0
6.769063949584961,487.0
6.778733968734741,493.0
6.789891958236694,495.0
6.799461126327515,488.0
6.809553861618042,485.0
6.819000005722046,484.0
6.828563928604126,477.0
6.83955192565918,476.0
6.850022077560425,462.0
6.8583478927612305,467.0
6.8688178062438965,464.0
6.879638910293579,463.0
6.889602899551392,463.0
6.899554967880249,471.0
6.909770965576172,468.0
6.919363021850586,472.0
6.929142951965332,476.0
6.939152002334595,478.0
6.949534893035889,486.0
6.959619998931885,484.0
6.969092130661011,480.0
6.978679895401001,479.0
6.989742040634155,476.0
7.000035047531128,473.0
7.008744955062866,466.0
7.019199848175049,472.0
7.028690814971924,476.0
7.039825916290283,466.0
7.049300909042358,468.0
7.059482097625732,468.0
7.0689709186553955,450.0
7.078783988952637,482.0
7.08881402015686,484.0
7.099408149719238,482.0
7.109469890594482,491.0
7.119004964828491,496.0
7.128684997558594,491.0
7.139883995056152,498.0
7.149500846862793,496.0
7.159589052200317,483.0
7.169034957885742,483.0
7.178668975830078,481.0
7.1897828578948975,476.0
7.200074911117554,474.0
7.208881855010986,476.0
7.219382047653198,479.0
7.229074954986572,468.0
7.2389748096466064,478.0
7.249427795410156,488.0
7.259452819824219,489.0
7.268902778625488,488.0
7.278512954711914,487.0
7.289531707763672,485.0
7.299598932266235,486.0
7.309957981109619,488.0
7.318403959274292,491.0
7.329128980636597,474.0
7.339049816131592,467.0
7.34947395324707,459.0
7.3596720695495605,442.0
7.369185924530029,454.0
7.378731966018677,449.0
7.389909982681274,446.0
7.399361848831177,441.0
7.409569025039673,441.0
7.41904616355896,411.0
7.428631067276001,443.0
7.439643144607544,446.0
7.450129747390747,445.0
7.458931922912598,440.0
7.468413829803467,429.0
7.47905707359314,431.0
7.488966941833496,424.0
7.49898886680603,416.0
7.509602069854736,405.0
7.51908802986145,389.0
7.528680801391602,389.0
7.539674997329712,382.0
7.550018072128296,378.0
7.558367967605591,376.0
7.568866968154907,376.0
7.578503847122192,366.0
7.589577913284302,360.0
7.600031852722168,353.0
7.608797788619995,350.0
7.6193249225616455,346.0
7.629040002822876,359.0
7.638999938964844,340.0
7.64911413192749,325.0
7.6596839427948,314.0
7.669243097305298,301.0
7.67874813079834,295.0
7.690014839172363,290.0
7.699533939361572,280.0
7.709719896316528,277.0
7.719227075576782,272.0
7.728691816329956,270.0
7.739803075790405,268.0
7.749293088912964,272.0
7.759390830993652,268.0
7.768829822540283,272.0
7.779595851898193,272.0
7.789686918258667,269.0
7.800001859664917,274.0
7.808783054351807,272.0
7.819292783737183,261.0
7.828690767288208,265.0
7.839662075042725,252.0
7.850024938583374,227.0
7.858781814575195,252.0
7.869304895401001,255.0
7.8790388107299805,253.0
7.888913154602051,253.0
7.8993871212005615,262.0
7.909503936767578,261.0
7.918961763381958,278.0
7.92854380607605,271.0
7.939487934112549,286.0
7.949530124664307,290.0
7.959646940231323,293.0
7.969162940979004,289.0
7.978686809539795,290.0
7.989749908447266,300.0
8.000078916549683,285.0
8.008882761001587,298.0
8.018299102783203,282.0
8.02871584892273,288.0
8.039878129959106,286.0
8.049456119537354,292.0
8.059592962265015,289.0
8.0690758228302,287.0
8.078657865524292,291.0
8.089712142944336,301.0
8.10004186630249,317.0
8.10881495475769,311.0
8.119350910186768,311.0
8.12904691696167,323.0
8.138929843902588,312.0
8.148860931396484,311.0
8.158370971679688,310.0
8.16884183883667,307.0
8.179661989212036,312.0
8.189832925796509,297.0
8.19867992401123,300.0
8.210080862045288,307.0
8.218584060668945,291.0
8.229398965835571,314.0
8.239558935165405,315.0
8.249593019485474,305.0
8.259737968444824,319.0
8.26929783821106,314.0
8.278719902038574,319.0
8.28988003730774,325.0
8.299367904663086,324.0
8.309522867202759,320.0
8.318986892700195,322.0
8.328591108322144,321.0
8.339693069458008,313.0
8.350098848342896,316.0
8.358819961547852,310.0
8.369296073913574,314.0
8.378757953643799,312.0
8.389945030212402,279.0
8.399435997009277,317.0
8.409531831741333,316.0
8.418994903564453,330.0
8.428626775741577,332.0
8.439643144607544,338.0
8.450023889541626,342.0
8.45871615409851,355.0
8.469239950180054,342.0
8.478684902191162,351.0
8.489638090133667,346.0
8.499622821807861,347.0
8.509849071502686,334.0
8.519386053085327,337.0
8.528971910476685,344.0
8.53878402709961,340.0
8.549527883529663,342.0
8.560034990310669,343.0
8.568467855453491,352.0
8.579117059707642,355.0
8.589015007019043,361.0
8.59900689125061,365.0
8.609583139419556,367.0
8.619054079055786,375.0
8.628660917282104,377.0
8.639611721038818,375.0
8.650035858154297,380.0
8.65876293182373,342.0
8.669313907623291,374.0
8.678997993469238,365.0
8.688870906829834,368.0
8.700064897537231,377.0
8.708794116973877,374.0
8.719331979751587,373.0
8.729002952575684,379.0
8.73885989189148,393.0
8.749578952789307,387.0
8.760243892669678,397.0
8.76863694190979,360.0
8.779265880584717,406.0
8.789248943328857,407.0
8.799538850784302,400.0
8.809539079666138,385.0
8.818951845169067,402.0
8.82855486869812,404.0
8.839493036270142,410.0
8.849633932113647,413.0
8.859787940979004,399.0
8.869248867034912,395.0
8.878700971603394,397.0
8.889713764190674,397.0
8.900017023086548,395.0
8.908413887023926,409.0
8.918897867202759,410.0
8.928538084030151,413.0
8.93960690498352,412.0
8.950033903121948,416.0
8.958695888519287,415.0
8.969155073165894,418.0
8.978747844696045,413.0
8.989889860153198,420.0
8.999305963516235,408.0
9.00931692123413,398.0
9.018749952316284,403.0
9.029467105865479,380.0
9.039389848709106,395.0
9.049602031707764,395.0
9.059624910354614,364.0
9.069182872772217,401.0
9.078686952590942,400.0
9.089787721633911,409.0
9.100030899047852,416.0
9.10866093635559,412.0
9.11910080909729,418.0
9.128741979598999,421.0
9.139985799789429,423.0
9.149566888809204,419.0
9.15958285331726,417.0
9.169042825698853,411.0
9.178748846054077,376.0
9.189875841140747,410.0
9.199320077896118,403.0
9.209382772445679,406.0
9.218865871429443,404.0
9.229585886001587,411.0
9.239619016647339,411.0
9.250034809112549,418.0
9.25873613357544,428.0
9.269203901290894,423.0
9.278670072555542,425.0
9.289726972579956,434.0
9.300142049789429,429.0
9.308904886245728,429.0
9.318315982818604,427.0
9.32869291305542,427.0
9.339788913726807,423.0
9.3500337600708,427.0
9.35873794555664,418.0
9.369191884994507,416.0
9.378746032714844,417.0
9.389952898025513,391.0
9.399495840072632,436.0
9.409566879272461,450.0
9.419026851654053,452.0
9.428699016571045,446.0
9.439747095108032,457.0
9.45005989074707,459.0
9.458775043487549,473.0
9.469340085983276,463.0
9.47904086112976,464.0
9.488919019699097,466.0
9.49924898147583,472.0
9.509053945541382,450.0
9.518435001373291,465.0
9.529057025909424,460.0
9.538913011550903,460.0
9.548918008804321,463.0
9.559520959854126,479.0
9.569041728973389,487.0
9.578685760498047,487.0
9.589785099029541,503.0
9.599350929260254,512.0
9.609483003616333,515.0
9.61893916130066,528.0
9.628538131713867,534.0
9.639478921890259,540.0
9.649617910385132,545.0
9.659700870513916,551.0
9.66927981376648,553.0
9.6787109375,559.0
9.689825057983398,567.0
9.69938611984253,575.0
9.70946979522705,588.0
9.718946933746338,597.0
9.728657722473145,610.0
9.739835739135742,625.0
9.749366044998169,642.0
9.759501934051514,654.0
9.7689688205719,644.0
9.778588056564331,649.0
9.7898690700531,694.0
9.799455881118774,706.0
9.809551000595093,709.0
9.81908392906189,714.0
9.828721046447754,723.0
9.839781045913696,726.0
9.850185871124268,719.0
9.859048843383789,720.0
9.868431091308594,735.0
9.879184007644653,730.0
9.889180898666382,728.0
9.899546146392822,732.0
9.909663915634155,719.0
9.919193983078003,733.0
9.92868709564209,736.0
9.939655780792236,731.0
9.950023889541626,719.0
9.95874285697937,724.0
9.96921706199646,717.0
9.978761911392212,705.0
9.98978877067566,692.0
10.00002408027649,676.0
10.008790969848633,665.0
10.019315958023071,649.0
10.029067039489746,651.0
10.039123773574829,629.0
10.049621820449829,630.0
10.059741973876953,617.0
10.069225788116455,613.0
10.078681945800781,609.0
10.0897798538208,612.0
10.100040912628174,606.0
10.108778953552246,601.0
10.119314908981323,599.0
10.129011869430542,591.0
10.138897895812988,580.0
10.148959875106812,574.0
10.159583806991577,561.0
10.169091939926147,557.0
10.178684949874878,546.0
10.18979287147522,533.0
10.200087070465088,523.0
10.20884394645691,517.0
10.21929383277893,504.0
10.228697061538696,512.0
10.239866971969604,501.0
10.249500036239624,496.0
10.259590864181519,473.0
10.269062042236328,473.0
10.278838872909546,475.0
10.288853883743286,458.0
10.29958176612854,445.0
10.310203075408936,437.0
10.318726062774658,424.0
10.32945990562439,418.0
10.339440107345581,386.0
10.349522829055786,380.0
10.359580039978027,362.0
10.369059085845947,345.0
10.378662824630737,341.0
10.389739990234375,330.0
10.400017738342285,320.0
10.408355951309204,316.0
10.418826818466187,316.0
10.429576873779297,295.0
10.439599990844727,286.0
10.450030088424683,283.0
10.458768129348755,284.0
10.469222784042358,263.0
10.478677988052368,262.0
10.489758968353271,245.0
10.500019788742065,239.0
10.508811950683594,230.0
10.519281148910522,226.0
10.52884292602539,220.0
10.538886785507202,206.0
10.549482822418213,201.0
10.559525966644287,203.0
10.569011926651001,207.0
10.578670978546143,203.0
10.589755773544312,198.0
10.60002088546753,197.0
10.60884714126587,202.0
10.619356155395508,196.0
10.62906789779663,185.0
10.638944864273071,182.0
10.64895510673523,178.0
10.659533977508545,168.0
10.668988943099976,157.0
10.678566932678223,146.0
10.689659118652344,138.0
10.700060844421387,134.0
10.708774089813232,127.0
10.719310998916626,124.0
10.728989839553833,120.0
10.738842964172363,124.0
10.749589920043945,126.0
10.760316848754883,95.0
10.768757820129395,121.0
10.779449939727783,129.0
10.789521932601929,105.0
10.799614906311035,130.0
10.809731006622314,122.0
10.819169044494629,126.0
10.82866883277893,122.0
10.839617013931274,121.0
10.850013971328735,122.0
10.858342170715332,120.0
10.868767976760864,122.0
10.879651069641113,130.0
10.889832973480225,136.0
10.899387121200562,144.0
10.90950894355774,156.0
10.918993949890137,161.0
10.928594827651978,160.0
10.939666748046875,161.0
10.950028896331787,165.0
10.958773851394653,166.0
10.969265937805176,173.0
10.978842973709106,165.0
10.98885178565979,151.0
10.998859882354736,135.0
11.009881973266602,119.0
11.018313884735107,104.0
11.02866792678833,79.0
11.039611101150513,66.0
11.049521923065186,52.0
11.059587955474854,44.0
11.069053888320923,35.0
11.078681945800781,35.0
11.08982801437378,35.0
11.09940505027771,32.0
11.109515905380249,31.0
11.11899209022522,29.0
11.128593921661377,30.0
11.13969874382019,32.0
11.150010108947754,29.0
11.158364057540894,29.0
11.168851852416992,31.0
11.179590940475464,28.0
11.189648151397705,32.0
11.20003080368042,28.0
11.208770990371704,31.0
11.219276905059814,22.0
11.228657007217407,26.0
11.239727020263672,29.0
11.250026941299438,25.0
11.258837938308716,32.0
11.269322872161865,24.0
11.279025793075562,29.0
11.289063930511475,29.0
11.299610137939453,29.0
11.30971884727478,29.0
11.3192298412323,26.0
11.32867980003357,30.0
11.339761018753052,29.0
11.35005784034729,25.0
11.358805894851685,28.0
11.369298934936523,30.0
11.379009008407593,30.0
11.388875961303711,30.0
11.3989417552948,28.0
11.409587860107422,27.0
11.41905403137207,23.0
11.428704023361206,25.0
11.439761877059937,29.0
11.450025796890259,28.0
11.458769798278809,28.0
11.469234943389893,30.0
11.478737831115723,27.0
11.489823818206787,29.0
11.499418020248413,26.0
11.509609937667847,27.0
11.519097089767456,24.0
11.528666019439697,27.0
11.53970980644226,22.0
11.550011157989502,27.0
11.558746099472046,27.0
11.569279909133911,24.0
11.578716039657593,27.0
11.589692831039429,27.0
11.600021839141846,27.0
11.608755826950073,29.0
11.619281768798828,28.0
11.628658771514893,27.0
11.63960599899292,26.0
11.649518966674805,26.0
11.659499883651733,30.0
11.668957948684692,26.0
11.678569793701172,27.0
11.68953013420105,25.0
11.69952392578125,27.0
11.70962405204773,27.0
11.719199895858765,25.0
11.72868800163269,28.0
11.739701986312866,26.0
11.750030040740967,27.0
11.758824825286865,29.0
11.769352912902832,25.0
11.779123783111572,28.0
11.789110898971558,23.0
11.799171924591064,26.0
11.809808015823364,25.0
11.819434881210327,26.0
11.829259872436523,24.0
11.839311122894287,26.0
11.84953498840332,26.0
11.859478950500488,26.0
11.869000911712646,25.0
11.878683090209961,28.0
11.88979697227478,27.0
11.898936033248901,26.0
11.90843391418457,23.0
11.918949127197266,25.0
11.928647756576538,26.0
11.939664125442505,25.0
11.950068950653076,28.0
11.958865880966187,24.0
11.969454050064087,26.0
11.979260921478271,19.0
11.989174842834473,25.0
11.999080896377563,27.0
12.00978398323059,25.0
12.019288063049316,27.0
12.028755903244019,28.0
12.039829015731812,25.0
12.05004096031189,27.0
12.058803796768188,25.0
12.069332838058472,25.0
12.079072952270508,20.0
12.088939905166626,27.0
12.09890079498291,30.0
12.108414888381958,25.0
12.118888854980469,27.0
12.128532886505127,27.0
12.139503002166748,25.0
12.149534940719604,23.0
12.159558773040771,26.0
12.16913104057312,26.0
12.178661108016968,23.0
12.189779996871948,26.0
12.20002293586731,24.0
12.208822965621948,23.0
12.219345092773438,26.0
12.229084014892578,23.0
12.239118099212646,26.0
12.249086856842041,22.0
12.259890794754028,23.0
12.268288850784302,27.0
12.27867317199707,25.0
12.289794921875,24.0
12.299320936203003,22.0
12.309484004974365,27.0
12.31896185874939,20.0
12.328588008880615,26.0
12.339662075042725,27.0
12.350071907043457,23.0
12.35893702507019,30.0
12.368355989456177,22.0
12.379069805145264,26.0
12.389070987701416,28.0
12.399253845214844,23.0
12.409958839416504,26.0
12.418363809585571,18.0
12.428993940353394,26.0
12.43887209892273,19.0
12.44962191581726,25.0
12.460266828536987,25.0
12.468690872192383,23.0
12.479462146759033,24.0
12.4895658493042,23.0
12.500036001205444,25.0
12.508784055709839,26.0
12.51930284500122,25.0
12.529124975204468,26.0
12.539142847061157,22.0
12.549623012542725,24.0
12.55979585647583,27.0
12.569287776947021,22.0
12.57885193824768,23.0
12.588809967041016,20.0
12.59956693649292,24.0
12.609521865844727,22.0
12.618982791900635,26.0
12.628644943237305,21.0
12.63981294631958,24.0
12.649313926696777,24.0
12.659368991851807,22.0
12.668910026550293,24.0
12.67963695526123,25.0
12.689685821533203,24.0
12.700091123580933,27.0
12.708875894546509,21.0
12.718315839767456,24.0
12.728763103485107,24.0
12.739845037460327,25.0
12.75009298324585,19.0
12.75892972946167,25.0
12.769438982009888,30.0
12.779212951660156,23.0
12.789175033569336,24.0
12.799595832824707,21.0
12.809714794158936,27.0
12.819228172302246,25.0
12.828651905059814,23.0
12.839741945266724,25.0
12.850115060806274,26.0
12.8589768409729,25.0
12.868476867675781,23.0
12.879215002059937,27.0
12.889225959777832,25.0
12.899605989456177,26.0
12.90976881980896,24.0
12.91935396194458,22.0
12.929075956344604,24.0
12.9389967918396,26.0
12.949016094207764,23.0
12.959622859954834,26.0
12.969177007675171,22.0
12.97871208190918,24.0
12.989840984344482,24.0
12.999337911605835,25.0
13.009450912475586,26.0
13.018994808197021,23.0
13.028710126876831,26.0
13.039813995361328,24.0
13.050012826919556,23.0
13.058801174163818,19.0
13.06931185722351,22.0
13.079031944274902,25.0
13.088984966278076,21.0
13.099426031112671,21.0
13.109531164169312,26.0
13.11909794807434,22.0
13.128671884536743,22.0
13.139693021774292,23.0
13.150053977966309,24.0
13.158894062042236,25.0
13.168331861495972,25.0
13.178637981414795,21.0
13.189692735671997,24.0
13.200001955032349,20.0
13.208747863769531,20.0
13.219294786453247,24.0
13.228983879089355,24.0
13.238856792449951,24.0
13.2495698928833,24.0
13.260308980941772,24.0
13.268877029418945,26.0
13.27859878540039,21.0
13.289683818817139,25.0
13.300039768218994,15.0
13.3087739944458,23.0
13.319354057312012,24.0
13.329188108444214,28.0
13.33915090560913,23.0
13.34948992729187,26.0
13.359468936920166,24.0
13.36893892288208,24.0
13.37863278388977,24.0
13.389758825302124,24.0
13.400032997131348,24.0
13.408679962158203,21.0
13.419121026992798,21.0
13.428735971450806,24.0
13.439888000488281,23.0
13.449410915374756,23.0
13.45953893661499,24.0
13.468999862670898,21.0
13.478801727294922,26.0
13.490002870559692,23.0
13.499475955963135,22.0
13.509658098220825,25.0
13.5191810131073,23.0
13.528732061386108,27.0
13.53982400894165,23.0
13.5500168800354,23.0
13.558340072631836,20.0
13.568763732910156,24.0
13.579505920410156,24.0
13.589514970779419,20.0
13.599548816680908,24.0
13.60957407951355,22.0
13.619144916534424,24.0
13.628654956817627,25.0
13.639755010604858,24.0
13.65000581741333,26.0
13.658797025680542,21.0
13.669307708740234,23.0
13.678961038589478,18.0
13.688899040222168,23.0
13.698961019515991,24.0
13.708357095718384,21.0
13.71877908706665,24.0
13.729659080505371,21.0
13.739792108535767,24.0
13.750022172927856,22.0
13.758834838867188,24.0
13.769336938858032,25.0
13.778979063034058,23.0
13.788841962814331,23.0
13.799601078033447,17.0
13.810213088989258,24.0
13.818641901016235,28.0
13.829384803771973,23.0
13.83940076828003,25.0
13.849514961242676,21.0
13.859523057937622,20.0
13.868987798690796,21.0
13.87863802909851,23.0
13.889600992202759,25.0
13.899513006210327,25.0
13.909632921218872,25.0
13.919131994247437,22.0
13.92870807647705,22.0
13.939793109893799,17.0
13.950068950653076,24.0
13.958876848220825,23.0
13.969364881515503,22.0
13.979052066802979,23.0
13.98891305923462,23.0
13.998892068862915,24.0
14.008339881896973,20.0
14.018749952316284,22.0
14.029478073120117,24.0
14.03950572013855,22.0
14.050018072128296,26.0
14.058763027191162,24.0
14.069222927093506,24.0
14.078641891479492,17.0
14.089754104614258,24.0
14.100007772445679,24.0
14.108345985412598,25.0
14.118746042251587,24.0
14.129455089569092,22.0
14.139485836029053,23.0
14.149601936340332,24.0
14.159633159637451,22.0
14.169063806533813,26.0
14.178651094436646,22.0
14.18966293334961,23.0
14.200026988983154,26.0
14.208862781524658,24.0
14.219405889511108,30.0
14.229113101959229,25.0
14.239021062850952,25.0
14.248908996582031,18.0
14.259889841079712,23.0
14.269416809082031,25.0
14.279185771942139,24.0
14.289133071899414,24.0
14.299540996551514,23.0
14.309478044509888,26.0
14.318917036056519,24.0
14.329643964767456,23.0
14.339732885360718,26.0
14.35000491142273,22.0
14.358344793319702,19.0
14.368732929229736,18.0
14.37947392463684,23.0
14.389514923095703,22.0
14.399523973464966,20.0
14.409642934799194,23.0
14.419165849685669,22.0
14.428673028945923,24.0
14.439697027206421,23.0
14.450073003768921,22.0
14.458853960037231,25.0
14.469423055648804,24.0
14.479053974151611,24.0
14.489022970199585,22.0
14.499479055404663,26.0
14.509552955627441,22.0
14.518996000289917,23.0
14.52862000465393,24.0
14.539608001708984,26.0
14.550001859664917,25.0
14.558323860168457,22.0
14.568699836730957,26.0
14.579374074935913,25.0
14.589279890060425,23.0
14.599513053894043,25.0
14.609608888626099,22.0
14.619122982025146,24.0
14.628709077835083,19.0
14.63981008529663,23.0
14.650017976760864,26.0
14.658835887908936,21.0
14.669386863708496,24.0
14.6791410446167,27.0
14.689089059829712,25.0
14.699512958526611,19.0
14.709632873535156,24.0
14.71915578842163,25.0
14.728708982467651,23.0
14.739744901657104,24.0
14.750071048736572,28.0
14.758816957473755,24.0
14.769412994384766,23.0
14.77910590171814,24.0
14.788998126983643,24.0
14.798996925354004,16.0
14.80955195426941,24.0
14.819024085998535,23.0
14.828707933425903,24.0
14.839760065078735,24.0
14.850022792816162,23.0
14.858658075332642,26.0
14.869085788726807,21.0
14.878727912902832,25.0
14.889878034591675,30.0
14.899325847625732,24.0
14.909371137619019,25.0
14.918843746185303,18.0
14.92962098121643,24.0
14.939584016799927,26.0
14.949843883514404,19.0
14.959705114364624,27.0
14.969180822372437,22.0
14.978662729263306,24.0
14.989653825759888,21.0
15.0,24.0
15.00876784324646,26.0
15.019267082214355,22.0
15.028727054595947,25.0
15.039674043655396,22.0
15.050014972686768,25.0
15.058759927749634,25.0
15.069366931915283,24.0
15.07911491394043,25.0
15.08903193473816,20.0
15.099020004272461,24.0
15.109571933746338,18.0
15.11905288696289,25.0
15.12864899635315,21.0
15.139647960662842,22.0
15.150048971176147,26.0
15.158803939819336,24.0
15.169399976730347,24.0
15.1791090965271,26.0
15.189176082611084,25.0
15.199537754058838,25.0
15.209455966949463,23.0
15.21897292137146,23.0
15.228614091873169,25.0
15.239623785018921,24.0
15.250012159347534,27.0
15.258792877197266,22.0
15.269279956817627,23.0
15.279017925262451,21.0
15.288974046707153,25.0
15.298864126205444,21.0
15.30985689163208,20.0
15.319350004196167,26.0
15.32905387878418,21.0
15.338951826095581,24.0
15.348941087722778,23.0
15.358394145965576,24.0
15.368814945220947,23.0
15.37950086593628,24.0
15.389539003372192,25.0
15.399604797363281,21.0
15.40967082977295,23.0
15.419214010238647,23.0
15.428677082061768,24.0
15.439755916595459,16.0
15.45002007484436,22.0
15.458800077438354,23.0
15.469325065612793,21.0
15.478978872299194,23.0
15.48885178565979,25.0
15.499605894088745,23.0
15.51029896736145,25.0
15.518688917160034,26.0
15.52940583229065,23.0
15.539391994476318,24.0
15.549526929855347,24.0
15.559520959854126,26.0
15.569041013717651,25.0
15.578680992126465,25.0
15.58976674079895,23.0
15.600075006484985,25.0
15.608928918838501,24.0
15.618332147598267,23.0
15.62866497039795,26.0
15.639750719070435,22.0
15.649999141693115,24.0
15.658865928649902,25.0
15.669343948364258,23.0
15.679120063781738,27.0
15.689048051834106,25.0
15.6994469165802,24.0
15.709403038024902,22.0
15.71892499923706,25.0
15.728587865829468,27.0
15.739566087722778,22.0
15.7496178150177,23.0
15.759667873382568,25.0
15.769141912460327,24.0
15.778653860092163,26.0
15.789727926254272,23.0
15.80001187324524,26.0
15.80872392654419,23.0
15.819186925888062,27.0
15.828678131103516,27.0
15.83976697921753,25.0
15.850049018859863,31.0
15.858721017837524,25.0
15.869195938110352,27.0
15.878724098205566,30.0
15.889851808547974,23.0
15.899383068084717,25.0
15.909465074539185,28.0
15.918911933898926,24.0
15.928534030914307,21.0
15.939536094665527,26.0
15.949535846710205,24.0
15.95968508720398,23.0
15.969169855117798,22.0
15.978667974472046,25.0
15.989625930786133,27.0
15.999511957168579,26.0
16.009552001953125,27.0
16.01902675628662,26.0
16.02863311767578,24.0
16.03965473175049,24.0
16.050002813339233,27.0
16.058691024780273,25.0
16.06915807723999,25.0
16.07876491546631,23.0
16.08890390396118,23.0
16.099430084228516,23.0
16.109529972076416,26.0
16.11903405189514,24.0
16.12866997718811,23.0
16.13969397544861,27.0
16.14926791191101,25.0
16.158895015716553,26.0
16.169456005096436,27.0
16.179308891296387,25.0
16.18933391571045,26.0
16.199574947357178,24.0
16.209511756896973,28.0
16.218976974487305,27.0
16.228614807128906,24.0
16.23965096473694,28.0
16.25001287460327,25.0
16.25880479812622,26.0
16.269377946853638,22.0
16.279189825057983,26.0
16.289294004440308,23.0
16.299618005752563,25.0
16.309681177139282,27.0
16.319194078445435,25.0
16.32866096496582,25.0
16.339739084243774,28.0
16.35001802444458,26.0
16.35883903503418,27.0
16.369383811950684,25.0
16.37910485267639,28.0
16.38900089263916,28.0
16.399397134780884,23.0
16.409476041793823,26.0
16.418960094451904,26.0
16.42839002609253,26.0
16.43950891494751,28.0
16.44954800605774,26.0
16.459487915039062,28.0
16.469006061553955,23.0
16.478676795959473,26.0
16.48986792564392,26.0
16.499315977096558,29.0
16.50939702987671,21.0
16.51883888244629,25.0
16.529606819152832,28.0
16.53962206840515,24.0
16.550112009048462,27.0
16.558809995651245,27.0
16.569313049316406,26.0
16.579066038131714,27.0
16.588977098464966,26.0
16.599370002746582,27.0
16.609468936920166,27.0
16.618946075439453,27.0
16.628592014312744,28.0
16.639692068099976,20.0
16.65007781982422,28.0
16.658801794052124,29.0
16.66929602622986,27.0
16.679185152053833,28.0
16.689140796661377,26.0
16.699542999267578,26.0
16.709682941436768,20.0
16.719197988510132,29.0
16.728713989257812,28.0
16.73878502845764,26.0
16.74965500831604,28.0
16.759684085845947,25.0
16.769224882125854,27.0
16.778656005859375,26.0
16.78961205482483,27.0
16.799546003341675,26.0
16.80983591079712,24.0
16.81940793991089,26.0
16.829185962677002,26.0
16.839292764663696,25.0
16.849618911743164,30.0
16.859750032424927,23.0
16.869293928146362,27.0
16.879048824310303,20.0
16.889090061187744,26.0
16.8995361328125,26.0
16.909670114517212,25.0
16.91918683052063,28.0
16.9287269115448,25.0
16.93979787826538,28.0
16.950001001358032,27.0
16.958647966384888,22.0
16.969069004058838,28.0
16.97868800163269,23.0
16.989683866500854,24.0
17.00005078315735,28.0
17.008815050125122,24.0
17.01937198638916,28.0
17.02909207344055,27.0
17.039132118225098,27.0
17.04962992668152,28.0
17.05966091156006,25.0
17.06913995742798,27.0
17.078673839569092,24.0
17.089741945266724,27.0
17.099992036819458,27.0
17.10834503173828,24.0
17.118755102157593,27.0
17.1296329498291,26.0
17.139682054519653,25.0
17.15007781982422,25.0
17.158819913864136,25.0
17.16939091682434,28.0
17.179078817367554,25.0
17.18909478187561,27.0
17.199604988098145,24.0
17.209632873535156,25.0
17.219116926193237,27.0
17.22865891456604,25.0
17.239739894866943,28.0
17.250058889389038,23.0
17.258800983428955,25.0
17.269412994384766,29.0
17.279136896133423,26.0
17.289073944091797,26.0
17.29952096939087,26.0
17.309555768966675,27.0
17.318989038467407,28.0
17.328630924224854,25.0
17.339732885360718,27.0
17.35011887550354,25.0
17.35884380340576,25.0
17.369384765625,23.0
17.379060983657837,25.0
17.389039039611816,28.0
17.399083852767944,24.0
17.409705877304077,28.0
17.419206142425537,28.0
17.42866086959839,26.0
17.43963098526001,28.0
17.449521780014038,26.0
17.459537029266357,26.0
17.469032764434814,30.0
17.478839874267578,27.0
17.488662004470825,29.0
17.499573945999146,25.0
17.51015591621399,27.0
17.518632888793945,24.0
17.529399871826172,27.0
17.53929591178894,21.0
17.54953384399414,24.0
17.55957293510437,27.0
17.569178104400635,24.0
17.578696966171265,27.0
17.589746952056885,28.0
17.60000205039978,26.0
17.608670949935913,28.0
17.61916995048523,26.0
17.628670930862427,30.0
17.63981580734253,28.0
17.649327039718628,25.0
17.65954875946045,27.0
17.66902494430542,25.0
17.678642749786377,25.0
17.689607858657837,28.0
17.699529886245728,24.0
17.709566831588745,28.0
17.719130992889404,28.0
17.728662967681885,25.0
17.739639043807983,24.0
17.750045776367188,25.0
17.758686780929565,22.0
17.769134044647217,24.0
17.778743028640747,28.0
17.789522886276245,26.0
17.79955291748047,26.0
17.809735774993896,27.0
17.819292783737183,30.0
17.82902693748474,26.0
17.839020013809204,24.0
17.84954285621643,24.0
17.859633922576904,29.0
17.869201183319092,26.0
17.878670930862427,28.0
17.889642000198364,19.0
17.90005588531494,27.0
17.908840894699097,27.0
17.9194438457489,27.0
17.929154872894287,29.0
17.939152002334595,21.0
17.94961714744568,29.0
17.959672927856445,24.0
17.96917700767517,25.0
17.97865390777588,29.0
17.989742040634155,24.0
18.000014066696167,30.0
18.008843898773193,23.0
18.01935887336731,27.0
18.029074907302856,30.0
18.03899312019348,26.0
18.049390077590942,28.0
18.059335947036743,27.0
18.06876802444458,24.0
18.079493045806885,28.0
18.089650869369507,27.0
18.100013971328735,28.0
18.108789920806885,31.0
18.119284868240356,29.0
18.128719091415405,29.0
18.13983392715454,28.0
18.150012731552124,27.0
18.158689975738525,29.0
18.169163942337036,27.0
18.178648948669434,31.0
18.1897189617157,28.0
18.20000672340393,25.0
18.208760023117065,31.0
18.219366788864136,28.0
18.229072093963623,31.0
18.23911190032959,22.0
18.249094009399414,28.0
18.259676933288574,31.0
18.269206047058105,29.0
18.27871584892273,29.0
18.289676904678345,23.0
18.299993991851807,31.0
18.308766841888428,30.0
18.319260835647583,28.0
18.32867980003357,30.0
18.33966898918152,23.0
18.350056886672974,30.0
18.358864068984985,31.0
18.369436740875244,26.0
18.379191875457764,27.0
18.389144897460938,24.0
18.399565935134888,30.0
18.40977716445923,29.0
18.419289112091064,28.0
18.429035902023315,29.0
18.438940048217773,28.0
18.449308156967163,29.0
18.459323167800903,28.0
18.468755960464478,27.0
18.479543924331665,28.0
18.48944616317749,27.0
18.4995539188385,33.0
18.50960087776184,30.0
18.519089937210083,29.0
18.52865695953369,25.0
18.53964376449585,30.0
18.55006194114685,27.0
18.558801889419556,29.0
18.56929874420166,30.0
18.578659057617188,29.0
18.589773893356323,32.0
18.60000991821289,28.0
18.60881781578064,30.0
18.619304895401,29.0
18.62897777557373,31.0
18.638849020004272,30.0
18.649653911590576,30.0
18.6596519947052,29.0
18.66912293434143,32.0
18.678664922714233,31.0
18.689730882644653,32.0
18.700071811676025,30.0
18.708799839019775,29.0
18.719413995742798,32.0
18.729142904281616,32.0
18.73905086517334,34.0
18.74943494796753,33.0
18.759390830993652,33.0
18.768866062164307,28.0
18.779635906219482,32.0
18.78973412513733,40.0
18.80000877380371,28.0
18.808731079101562,33.0
18.819215059280396,34.0
18.828662872314453,34.0
18.839694023132324,38.0
18.850082874298096,35.0
18.8587589263916,34.0
18.869224786758423,38.0
18.878792762756348,36.0
18.889962911605835,41.0
18.89938998222351,42.0
18.90944790840149,45.0
18.918898820877075,51.0
18.92958688735962,57.0
18.93956708908081,66.0
18.949525833129883,65.0
18.959491968154907,67.0
18.968955039978027,70.0
18.978615045547485,67.0
18.989714860916138,70.0
19.000064849853516,75.0
19.00887703895569,77.0
19.0194091796875,63.0
19.029206037521362,69.0
19.03929591178894,84.0
19.049630880355835,86.0
19.059685945510864,87.0
19.06919002532959,98.0
19.078744888305664,100.0
19.08992886543274,114.0
19.099413871765137,126.0
19.10949397087097,136.0
19.11892294883728,137.0
19.129657983779907,133.0
19.139659881591797,137.0
19.15007781982422,151.0
19.158798933029175,153.0
19.16932702064514,149.0
19.17899489402771,152.0
19.188985109329224,159.0
19.19954776763916,156.0
19.20931887626648,164.0
19.21874499320984,167.0
19.22952389717102,174.0
19.239743947982788,181.0
19.25002384185791,190.0
19.258797883987427,182.0
19.269283056259155,203.0
19.27897596359253,206.0
19.28886389732361,215.0
19.30003595352173,227.0
19.30867099761963,227.0
19.319097995758057,199.0
19.328683853149414,240.0
19.339760065078735,241.0
19.35000705718994,214.0
19.358696937561035,248.0
19.369199991226196,248.0
19.378679990768433,266.0
19.389741897583008,285.0
19.40002202987671,284.0
19.408713817596436,278.0
19.419230937957764,314.0
19.428650856018066,316.0
19.439747095108032,321.0
19.450010061264038,339.0
19.45873999595642,350.0
19.469280004501343,357.0
19.479068756103516,359.0
19.488935947418213,331.0
19.49939203262329,361.0
19.509325981140137,373.0
19.518817901611328,374.0
19.529669046401978,367.0
19.53970503807068,380.0
19.549994945526123,398.0
19.558669090270996,384.0
19.569137811660767,393.0
19.578718900680542,346.0
19.589754104614258,385.0
19.60000991821289,403.0
19.608763933181763,403.0
19.619264841079712,399.0
19.629029989242554,396.0
19.638920783996582,393.0
19.649298906326294,395.0
19.659340858459473,392.0
19.668895959854126,388.0
19.679651975631714,380.0
19.689719915390015,379.0
19.70006012916565,381.0
19.708832025527954,384.0
19.719345808029175,377.0
19.729041814804077,356.0
19.73893976211548,390.0
19.74942398071289,363.0
19.759495973587036,390.0
19.769015073776245,395.0
19.77871608734131,397.0
19.78977084159851,398.0
19.8000590801239,397.0
19.808857917785645,392.0
19.81943702697754,397.0
19.829154014587402,387.0
19.83901882171631,381.0
19.848886966705322,377.0
19.859814882278442,385.0
19.869293928146362,376.0
19.87895703315735,383.0
19.888453006744385,373.0
19.89948582649231,380.0
19.91002106666565,384.0
19.9184308052063,382.0
19.92918300628662,382.0
19.939079761505127,396.0
19.94945788383484,395.0
19.95946478843689,400.0
19.968950986862183,398.0
19.9786479473114,391.0
19.989649057388306,396.0
20.00000786781311,391.0
20.00871181488037,389.0
20.019078731536865,398.0
20.028645992279053,386.0
20.039642095565796,383.0
20.050025939941406,351.0
20.058820962905884,388.0
20.069404125213623,397.0
20.07920503616333,403.0
20.089186906814575,413.0
20.09955406188965,423.0
20.109584093093872,422.0
20.119104862213135,441.0
20.128715991973877,450.0
20.139770030975342,456.0
20.150003910064697,458.0
20.158694744110107,462.0
20.169266939163208,464.0
20.179040908813477,471.0
20.189003944396973,472.0
20.199445962905884,475.0
20.209608793258667,482.0
20.219156980514526,497.0
20.228668928146362,505.0
20.239720821380615,509.0
20.25002098083496,525.0
20.25875186920166,523.0
20.269300937652588,533.0
20.279072999954224,540.0
20.289033889770508,551.0
20.299489974975586,551.0
20.309608936309814,553.0
20.319145917892456,553.0
20.328670978546143,559.0
20.33968687057495,550.0
20.350035905838013,554.0
20.358783960342407,559.0
20.369327068328857,557.0
20.37903618812561,560.0
20.389009952545166,561.0
20.399035930633545,563.0
20.409629821777344,574.0
20.419151067733765,575.0
20.428648948669434,568.0
20.439676761627197,592.0
20.450012922286987,595.0
20.458793878555298,597.0
20.469332933425903,604.0
20.479028940200806,595.0
20.488967895507812,587.0
20.498939752578735,603.0
20.508342027664185,590.0
20.51879072189331,595.0
20.529616117477417,596.0
20.539657831192017,591.0
20.550106048583984,593.0
20.558902978897095,607.0
20.568358898162842,601.0
20.579046726226807,606.0
20.588969945907593,613.0
20.59894585609436,618.0
20.609556913375854,610.0
20.619143962860107,615.0
20.628653049468994,626.0
20.639649868011475,626.0
20.650004863739014,626.0
20.658808946609497,625.0
20.669381141662598,622.0
20.679171085357666,620.0
20.6892409324646,621.0
20.699620962142944,621.0
20.7097430229187,625.0
20.719318866729736,626.0
20.729026079177856,632.0
20.738900899887085,632.0
20.74956202507019,644.0
20.760234832763672,657.0
20.768693923950195,643.0
20.779548168182373,614.0
20.789626121520996,646.0
20.80000400543213,652.0
20.808852910995483,654.0
20.819371938705444,655.0
20.829084873199463,650.0
20.839103937149048,652.0
20.84906005859375,652.0
20.85930895805359,655.0
20.868816137313843,646.0
20.879541873931885,647.0
20.88950800895691,653.0
20.899821996688843,644.0
20.909881114959717,652.0
20.919430017471313,666.0
20.929170846939087,658.0
20.939197778701782,661.0
20.949607849121094,663.0
20.959759950637817,663.0
20.96928596496582,661.0
20.97901487350464,657.0
20.98896884918213,651.0
20.999069929122925,655.0
21.009735822677612,639.0
21.019258975982666,636.0
21.028738021850586,640.0
21.039870977401733,630.0
21.049409866333008,642.0
21.05963897705078,649.0
21.06912899017334,638.0
21.078784942626953,654.0
21.089959859848022,641.0
21.099627017974854,655.0
21.109719038009644,663.0
21.119174003601074,664.0
21.128647804260254,664.0
21.139570951461792,665.0
21.149608850479126,665.0
21.159834146499634,665.0
21.169323921203613,665.0
21.17912793159485,658.0
21.189222812652588,662.0
21.19963002204895,668.0
21.209700107574463,663.0
21.219169855117798,636.0
21.22872805595398,640.0
21.239899158477783,688.0
21.249496936798096,690.0
21.259729146957397,706.0
21.269232988357544,722.0
21.278795957565308,727.0
21.289860010147095,733.0
21.3001229763031,730.0
21.308818817138672,746.0
21.31944489479065,756.0
21.329154014587402,767.0
21.33917474746704,768.0
21.349522829055786,776.0
21.359590768814087,784.0
21.369061946868896,782.0
21.378679990768433,798.0
21.38969397544861,813.0
21.40000891685486,818.0
21.408703804016113,830.0
21.419293880462646,838.0
21.429020166397095,843.0
21.43892192840576,845.0
21.448896884918213,861.0
21.45833110809326,872.0
21.468750953674316,859.0
21.479493141174316,860.0
21.489464044570923,871.0
21.499552011489868,874.0
21.509597778320312,871.0
21.51917314529419,867.0
21.528634071350098,872.0
21.53973698616028,870.0
21.550012826919556,882.0
21.55868101119995,884.0
21.56913995742798,895.0
21.57864284515381,894.0
21.589663982391357,902.0
21.60005283355713,910.0
21.6087749004364,916.0
21.61939287185669,912.0
21.629179000854492,912.0
21.63927388191223,917.0
21.649553060531616,928.0
21.659547090530396,914.0
21.669008016586304,904.0
21.678627967834473,897.0
21.689579010009766,897.0
21.69951105117798,901.0
21.70946502685547,890.0
21.718921899795532,899.0
21.729671955108643,896.0
21.739616870880127,903.0
21.749799966812134,910.0
21.759653091430664,906.0
21.76923680305481,868.0
21.77868103981018,912.0
21.78974413871765,912.0
21.800050973892212,912.0
21.808784008026123,910.0
21.819353103637695,911.0
21.82908797264099,905.0
21.839038848876953,896.0
21.849550008773804,891.0
21.859591960906982,893.0
21.869054794311523,899.0
21.87870502471924,893.0
21.889919996261597,890.0
21.899390935897827,909.0
21.909544944763184,901.0
21.919070959091187,897.0
21.928635120391846,918.0
21.93963313102722,929.0
21.950119972229004,912.0
21.95886778831482,909.0
21.969465017318726,919.0
21.97918677330017,916.0
21.989110946655273,909.0
21.999516010284424,902.0
22.00969386100769,898.0
22.019145965576172,892.0
22.028635025024414,863.0
22.03963303565979,894.0
22.05002212524414,885.0
22.058687925338745,891.0
22.069144010543823,892.0
22.078704118728638,891.0
22.08974313735962,892.0
22.100031852722168,908.0
22.108744859695435,912.0
22.119303941726685,906.0
22.128977060317993,911.0
22.13891887664795,901.0
22.148892164230347,903.0
22.158385753631592,905.0
22.168876886367798,903.0
22.179646968841553,900.0
22.189621925354004,888.0
22.200008869171143,893.0
22.2087140083313,897.0
22.219275951385498,902.0
22.228989839553833,903.0
22.23897099494934,906.0
22.249073028564453,918.0
22.259639978408813,912.0
22.2691969871521,929.0
22.278685808181763,932.0
22.289793968200684,922.0
22.300003051757812,934.0
22.308658838272095,937.0
22.319108963012695,941.0
22.32878088951111,936.0
22.340003967285156,937.0
22.34958505630493,934.0
22.359654903411865,938.0
22.369189977645874,941.0
22.378658056259155,940.0
22.389753103256226,947.0
22.399996757507324,945.0
22.408658981323242,959.0
22.41911482810974,961.0
22.428632020950317,968.0
22.439728021621704,982.0
22.449986934661865,981.0
22.45832896232605,975.0
22.468740940093994,968.0
22.479573965072632,978.0
22.489516973495483,962.0
22.499613761901855,990.0
22.509676933288574,990.0
22.51919412612915,970.0
22.528645038604736,981.0
22.53972816467285,984.0
22.55007791519165,984.0
22.558705806732178,999.0
22.56919503211975,1009.0
22.57868194580078,1004.0
22.589685916900635,1014.0
22.600057125091553,1020.0
22.608726024627686,1023.0
22.61934208869934,1023.0
22.62902808189392,1023.0
22.638940811157227,1023.0
22.64931082725525,1023.0
22.659290075302124,1023.0
22.668740034103394,1023.0
22.679450035095215,1023.0
22.689423084259033,1023.0
22.699517965316772,1023.0
22.70945715904236,1023.0
22.718914031982422,1023.0
22.729617834091187,1023.0
22.739563941955566,1023.0
22.749516010284424,1023.0
22.759537935256958,1023.0
22.76902198791504,1023.0
22.778630018234253,1023.0
22.78957200050354,1023.0
22.799992084503174,1023.0
22.80864691734314,1023.0
22.81913113594055,1023.0
22.828636169433594,1023.0
22.83966898918152,1023.0
22.8500759601593,996.0
22.858843088150024,961.0
22.869406938552856,923.0
22.87909698486328,864.0
22.88898992538452,808.0
22.899348974227905,772.0
22.909302949905396,784.0
22.918748140335083,771.0
22.929442882537842,770.0
22.939356803894043,771.0
22.949504852294922,773.0
22.95944905281067,773.0
22.968904972076416,773.0
22.979619026184082,773.0
22.98962092399597,772.0
22.999503135681152,772.0
23.00974678993225,772.0
23.019313097000122,774.0
23.029042959213257,772.0
23.03892993927002,775.0
23.050074100494385,775.0
23.058820962905884,771.0
23.069377899169922,774.0
23.079132080078125,775.0
23.089060068130493,776.0
23.099483966827393,776.0
23.10942506790161,776.0
23.118863105773926,777.0
23.129594087600708,777.0
23.13966679573059,777.0
23.150049924850464,777.0
23.158869981765747,776.0
23.16937279701233,776.0
23.179099082946777,776.0
23.18906593322754,776.0
23.199445962905884,776.0
23.209438800811768,777.0
23.21893286705017,776.0
23.228627920150757,777.0
23.23961591720581,777.0
23.249820947647095,777.0
23.25967311859131,778.0
23.26910400390625,776.0
23.278656005859375,778.0
23.289637088775635,778.0
23.29999613761902,777.0
23.30867600440979,776.0
23.319251775741577,778.0
23.328668117523193,778.0
23.339686155319214,777.0
23.350049018859863,777.0
23.35871982574463,776.0
23.36919379234314,776.0
23.378682136535645,776.0
23.389726877212524,778.0
23.400006771087646,778.0
23.40877676010132,778.0
23.419332027435303,777.0
23.429046869277954,778.0
23.43901801109314,778.0
23.44944190979004,778.0
23.4594669342041,778.0
23.46896195411682,779.0
23.47861075401306,780.0
23.489641904830933,779.0
23.500015020370483,780.0
23.508836030960083,780.0
23.519449949264526,778.0
23.529196977615356,779.0
23.53918194770813,779.0
23.549520015716553,780.0
23.559573888778687,779.0
23.56907296180725,778.0
23.57867193222046,779.0
23.589709043502808,781.0
23.600006103515625,780.0
23.608742713928223,781.0
23.619271755218506,779.0
23.62907886505127,780.0
23.63901996612549,780.0
23.649467706680298,780.0
23.65945291519165,780.0
23.66895604133606,780.0
23.678591012954712,780.0
23.689582109451294,781.0
23.69999599456787,781.0
23.708721160888672,780.0
23.719286918640137,780.0
23.728712797164917,780.0
23.739761114120483,781.0
23.749989986419678,780.0
23.75864291191101,780.0
23.76917791366577,781.0
23.77872395515442,782.0
23.7898108959198,781.0
23.799988985061646,781.0
23.808387994766235,780.0
23.818886041641235,781.0
23.829681158065796,780.0
23.839675903320312,780.0
23.850066900253296,780.0
23.85885190963745,780.0
23.86940884590149,781.0
23.879122972488403,780.0
23.88905692100525,780.0
23.899463891983032,781.0
23.9095458984375,780.0
23.919124841690063,782.0
23.92873787879944,781.0
23.93975591659546,782.0
23.950069904327393,781.0
23.958863973617554,782.0
23.969440937042236,781.0
23.979135990142822,781.0
23.98905897140503,782.0
23.99899697303772,780.0
24.009599924087524,780.0
24.019092798233032,780.0
24.028657913208008,781.0
24.039587020874023,779.0
24.049926042556763,781.0
24.05962586402893,782.0
24.06920099258423,781.0
24.078670978546143,781.0
24.089634895324707,781.0
24.099987983703613,781.0
24.108722925186157,782.0
24.119212865829468,781.0
24.128699779510498,781.0
24.13972496986389,782.0
24.150027990341187,783.0
24.15872097015381,782.0
24.16921901702881,782.0
24.17899799346924,781.0
24.188885927200317,780.0
24.19956398010254,780.0
24.21011710166931,779.0
24.21855092048645,780.0
24.229288816452026,780.0
24.239195108413696,781.0
24.2495059967041,780.0
24.259299993515015,781.0
24.26873803138733,781.0
24.27954602241516,781.0
24.289620876312256,780.0
24.30000400543213,780.0
24.308779001235962,781.0
24.31929898262024,779.0
24.32909893989563,780.0
24.338929891586304,780.0
24.349002838134766,779.0
24.35958504676819,780.0
24.369075775146484,781.0
24.37875199317932,780.0
24.389816999435425,780.0
24.4000461101532,780.0
24.40885090827942,780.0
24.419392824172974,780.0
24.429122924804688,781.0
24.43908190727234,780.0
24.449058055877686,780.0
24.459686040878296,780.0
24.46921396255493,780.0
24.478677988052368,779.0
24.48965096473694,780.0
24.50001096725464,780.0
24.508798837661743,779.0
24.519299030303955,780.0
24.528685092926025,779.0
24.539803981781006,780.0
24.549987077713013,778.0
24.55877709388733,780.0
24.569275856018066,780.0
24.57868194580078,780.0
24.5898118019104,781.0
24.600064992904663,778.0
24.608978748321533,780.0
24.618422031402588,779.0
24.629119873046875,780.0
24.63907814025879,779.0
24.649030923843384,779.0
24.6596839427948,779.0
24.66917610168457,779.0
24.678706884384155,779.0
24.68972682952881,778.0
24.7000949382782,778.0
24.7088360786438,776.0
24.719446897506714,779.0
24.729233026504517,780.0
24.73910689353943,780.0
24.749486923217773,781.0
24.759443998336792,781.0
24.76890993118286,781.0
24.779643774032593,780.0
24.78965187072754,780.0
24.799986839294434,781.0
24.808379888534546,782.0
24.81885313987732,781.0
24.829672813415527,780.0
24.83968496322632,781.0
24.84998607635498,781.0
24.858312845230103,780.0
24.86870503425598,781.0
24.879382848739624,782.0
24.88933491706848,782.0
24.899502992630005,782.0
24.909482955932617,781.0
24.91894292831421,781.0
24.929635047912598,782.0
24.939613819122314,782.0
24.94991683959961,782.0
24.95971703529358,783.0
24.969211101531982,782.0
24.978662729263306,781.0
24.989606857299805,782.0
24.999918937683105,781.0
25.00984787940979,782.0
25.019420862197876,782.0
25.029160976409912,780.0
25.03902792930603,782.0
25.048487901687622,781.0
25.05967879295349,782.0
25.06927514076233,781.0
25.07868194580078,782.0
25.089736938476562,782.0
25.099995136260986,781.0
25.10873794555664,781.0
25.11924910545349,782.0
25.128727912902832,782.0
25.13973093032837,783.0
25.149989128112793,783.0
25.158674955368042,782.0
25.16916298866272,783.0
25.178673028945923,782.0
25.189600944519043,782.0
25.199838876724243,783.0
25.20970106124878,783.0
25.219237089157104,783.0
25.228687047958374,783.0
25.23936891555786,783.0
25.249505043029785,783.0
25.25947380065918,783.0
25.268930912017822,783.0
25.279626846313477,783.0
25.289569854736328,783.0
25.299499988555908,783.0
25.30947995185852,783.0
25.318947076797485,784.0
25.329705953598022,783.0
25.33979296684265,784.0
25.349979162216187,784.0
25.358747005462646,784.0
25.369266748428345,783.0
25.378663778305054,783.0
25.389606714248657,782.0
25.4000461101532,784.0
25.40882706642151,784.0
25.41933298110962,784.0
25.429004907608032,784.0
25.43893074989319,785.0
25.449339866638184,785.0
25.45924973487854,785.0
25.46866512298584,785.0
25.47931480407715,785.0
25.489223957061768,784.0
25.499538898468018,786.0
25.50952386856079,784.0
25.518985986709595,785.0
25.528589010238647,784.0
25.539516925811768,785.0
25.549530029296875,784.0
25.55956792831421,785.0
25.56909489631653,785.0
25.578653812408447,784.0
25.589632034301758,784.0
25.60004186630249,785.0
25.608752012252808,785.0
25.619231939315796,785.0
25.628668785095215,784.0
25.639662981033325,785.0
25.649982929229736,784.0
25.658313989639282,784.0
25.66874098777771,785.0
25.679502964019775,785.0
25.689436197280884,784.0
25.69953203201294,784.0
25.70957088470459,784.0
25.719144821166992,784.0
25.728679895401,785.0
25.73966884613037,784.0
25.750075817108154,784.0
25.758802890777588,784.0
25.769340753555298,785.0
25.778997898101807,785.0
25.788851976394653,784.0
25.799525022506714,784.0
25.810158014297485,785.0
25.818594932556152,785.0
25.829265117645264,783.0
25.83924913406372,784.0
25.849507093429565,785.0
25.859568119049072,785.0
25.869107961654663,786.0
25.878662824630737,785.0
25.88959574699402,784.0
25.899958848953247,785.0
25.909743070602417,784.0
25.91924500465393,785.0
25.928663969039917,785.0
25.939676761627197,785.0
25.950042009353638,785.0
25.958849906921387,784.0
25.96934175491333,785.0
25.979054927825928,784.0
25.988981008529663,784.0
25.99892807006836,784.0
26.00953698158264,785.0
26.019104957580566,785.0
26.028669834136963,784.0
26.039674997329712,785.0
26.049981832504272,785.0
26.058804988861084,785.0
26.069342851638794,784.0
26.079024076461792,785.0
26.088890075683594,785.0
26.099985122680664,784.0
26.10958504676819,785.0
26.11913013458252,784.0
26.128682851791382,785.0
26.139734029769897,784.0
26.149983882904053,785.0
26.158801078796387,785.0
26.16930389404297,784.0
26.17867112159729,785.0
26.189617156982422,784.0
26.200026035308838,784.0
26.208809852600098,784.0
26.219348907470703,784.0
26.22912883758545,784.0
26.2390398979187,784.0
26.249106884002686,785.0
26.259646892547607,785.0
26.269179821014404,785.0
26.278764009475708,784.0
26.289788961410522,784.0
26.300034999847412,785.0
26.308939933776855,784.0
26.318334817886353,786.0
26.32900905609131,785.0
26.338924884796143,785.0
26.3489830493927,784.0
26.35959482192993,784.0
26.369105100631714,785.0
26.378672122955322,785.0
26.389643907546997,785.0
26.4000461101532,784.0
26.40888285636902,784.0
26.419513940811157,784.0
26.429178953170776,785.0
26.439146995544434,785.0
26.449531078338623,785.0
26.459605932235718,785.0
26.469090938568115,783.0
26.478668928146362,785.0
26.489662885665894,784.0
26.49997901916504,784.0
26.50888180732727,785.0
26.51941180229187,785.0
26.52916979789734,785.0
26.53914213180542,783.0
26.54918909072876,785.0
26.559754848480225,785.0
26.569268941879272,784.0
26.578688859939575,783.0
26.589706897735596,785.0
26.59998106956482,785.0
26.60878896713257,782.0
26.61931300163269,778.0
26.62903904914856,773.0
26.638930797576904,863.0
26.650046825408936,1023.0
26.659672021865845,986.0
26.669190883636475,933.0
26.678696870803833,886.0
26.6897189617157,820.0
26.69998002052307,790.0
26.708680868148804,732.0
26.719146966934204,683.0
26.728684902191162,659.0
26.739696979522705,643.0
26.749985933303833,627.0
26.75879693031311,589.0
26.769346952438354,563.0
26.779097080230713,549.0
26.788814067840576,541.0
26.799739837646484,530.0
26.809793949127197,496.0
26.819249868392944,440.0
26.828731775283813,439.0
26.83978009223938,397.0
26.849979877471924,360.0
26.85948896408081,336.0
26.868962049484253,311.0
26.87969994544983,267.0
26.88959002494812,221.0
26.8996000289917,176.0
26.90984296798706,120.0
26.91944193840027,53.0
26.92923593521118,33.0
26.939080953598022,30.0
26.949496030807495,31.0
26.959630966186523,29.0
26.969128847122192,28.0
26.978739976882935,24.0
26.989787101745605,24.0
27.00001883506775,27.0
27.008786916732788,25.0
27.01935601234436,27.0
27.029045820236206,29.0
27.038919925689697,25.0
27.050041913986206,27.0
27.05953097343445,26.0
27.069050073623657,27.0
27.07867693901062,27.0
27.08962893486023,25.0
27.100038766860962,28.0
27.10880398750305,27.0
27.11943006515503,27.0
27.129229068756104,27.0
27.13924288749695,28.0
27.149505853652954,26.0
27.15944194793701,30.0
27.168965101242065,31.0
27.178678035736084,31.0
27.18972897529602,58.0
27.199986934661865,147.0
27.208680868148804,225.0
27.21916890144348,309.0
27.228693962097168,379.0
27.239670038223267,453.0
27.25003695487976,523.0
27.258723974227905,585.0
27.269258975982666,670.0
27.278687953948975,737.0
27.289735794067383,800.0
27.300052881240845,859.0
27.30876111984253,913.0
27.31930375099182,957.0
27.32907009124756,999.0
27.33893084526062,1023.0
27.349990129470825,1023.0
27.358585119247437,1023.0
27.36902379989624,1016.0
27.378682136535645,782.0
27.389705896377563,771.0
27.400068044662476,774.0
27.40879511833191,777.0
27.419255018234253,777.0
27.42871904373169,779.0
27.43974804878235,780.0
27.449975967407227,781.0
27.458660125732422,781.0
27.469122886657715,783.0
27.478696823120117,782.0
27.489756107330322,783.0
27.49997591972351,781.0
27.50964903831482,783.0
27.519129991531372,784.0
27.52869987487793,783.0
27.539686918258667,783.0
27.550039052963257,784.0
27.558794021606445,784.0
27.569350004196167,785.0
27.579046726226807,784.0
27.588953018188477,785.0
27.599357843399048,784.0
27.60935091972351,785.0
27.618822813034058,785.0
27.62955904006958,784.0
27.639621019363403,784.0
27.65005087852478,784.0
27.65880584716797,785.0
27.66936492919922,785.0
27.679041862487793,784.0
27.688910007476807,784.0
27.70002770423889,784.0
27.708735942840576,785.0
27.71928906440735,785.0
27.728708028793335,785.0
27.739670991897583,785.0
27.750022172927856,786.0
27.758758783340454,784.0
27.76924419403076,786.0
27.778682947158813,784.0
27.789695978164673,784.0
27.80002188682556,785.0
27.808748960494995,786.0
27.819322109222412,785.0
27.829094171524048,785.0
27.839118003845215,784.0
27.8494770526886,785.0
27.859426975250244,785.0
27.86887288093567,785.0
27.879591941833496,785.0
27.88955307006836,786.0
27.899499893188477,785.0
27.909515857696533,785.0
27.919091939926147,785.0
27.92869281768799,785.0
27.939693927764893,784.0
27.94998002052307,784.0
27.958685874938965,784.0
27.969247817993164,784.0
27.97868299484253,785.0
27.989670038223267,785.0
27.999979972839355,786.0
28.008809804916382,786.0
28.01937699317932,785.0
28.029109954833984,785.0
28.03902792930603,785.0
28.049505949020386,784.0
28.05952501296997,785.0
28.068997144699097,785.0
28.078666925430298,784.0
28.08967089653015,784.0
28.099978923797607,784.0
28.108776807785034,785.0
28.1192889213562,784.0
28.128762006759644,784.0
28.13984513282776,784.0
28.150025844573975,785.0
28.158838033676147,785.0
28.169407844543457,784.0
28.179100036621094,784.0
28.188999891281128,784.0
28.19897484779358,784.0
28.20966601371765,784.0
28.21923303604126,785.0
28.228698015213013,784.0
28.239675045013428,785.0
28.2500319480896,784.0
28.25881290435791,785.0
28.269312858581543,786.0
28.27871084213257,784.0
28.289877891540527,784.0
28.300041913986206,784.0
28.30885910987854,784.0
28.31933903694153,785.0
28.32911205291748,785.0
28.339080810546875,784.0
28.349483966827393,784.0
28.35953998565674,785.0
28.369032859802246,785.0
28.378663778305054,784.0
28.389657974243164,786.0
28.399973154067993,785.0
28.40976309776306,784.0
28.41923499107361,786.0
28.428673028945923,785.0
28.439640045166016,785.0
28.449981927871704,785.0
28.45882272720337,785.0
28.46938681602478,785.0
28.47907304763794,784.0
28.488979816436768,785.0
28.49898386001587,785.0
28.50961184501648,784.0
28.51919412612915,785.0
28.52867817878723,784.0
28.539652109146118,784.0
28.54997706413269,785.0
28.55978798866272,785.0
28.569249868392944,785.0
28.578691005706787,785.0
28.589740991592407,784.0
28.600027084350586,784.0
28.608927965164185,786.0
28.61947202682495,785.0
28.62927794456482,785.0
28.639288902282715,785.0
28.649521827697754,784.0
28.659696102142334,784.0
28.669230937957764,785.0
28.678711891174316,784.0
28.689711093902588,784.0
28.69997787475586,784.0
28.708712816238403,784.0
28.719220876693726,785.0
28.728646755218506,785.0
28.739773988723755,784.0
28.750030040740967,784.0
28.758888959884644,785.0
28.769463062286377,785.0
28.779247999191284,784.0
28.789246797561646,785.0
28.799518823623657,784.0
28.809717893600464,785.0
28.819270849227905,785.0
28.829060077667236,784.0
28.83907699584961,783.0
28.849474906921387,785.0
28.859485864639282,785.0
28.86896777153015,784.0
28.879728078842163,784.0
28.88972306251526,784.0
28.900062799453735,785.0
28.90886092185974,784.0
28.919484853744507,784.0
28.92925190925598,784.0
28.939254999160767,784.0
28.949500799179077,786.0
28.959480047225952,785.0
28.9689359664917,785.0
28.97964596748352,784.0
28.989649057388306,785.0
28.999979972839355,785.0
29.00875997543335,784.0
29.01925492286682,784.0
29.028972864151,784.0
29.038845777511597,785.0
29.049553155899048,784.0
29.060051918029785,784.0
29.06842589378357,784.0
29.07903790473938,785.0
29.088900089263916,784.0
29.099503993988037,783.0
29.110044956207275,784.0
29.118485927581787,784.0
29.12921690940857,786.0
29.139144897460938,784.0
29.149595022201538,784.0
29.159655809402466,784.0
29.169102907180786,784.0
29.178643941879272,785.0
29.189708948135376,784.0
29.20005989074707,784.0
29.208965063095093,785.0
29.218422889709473,785.0
29.22911500930786,784.0
29.239001035690308,785.0
29.248929023742676,784.0
29.25993275642395,785.0
29.26947593688965,785.0
29.279216051101685,785.0
29.289175033569336,784.0
29.299506902694702,785.0
29.30952787399292,786.0
29.31905698776245,784.0
29.3287091255188,785.0
29.339679956436157,785.0
29.349977016448975,785.0
29.35976481437683,784.0
29.369271993637085,785.0
29.378971099853516,785.0
29.389941930770874,784.0
29.400047063827515,784.0
29.408904790878296,786.0
29.419461965560913,785.0
29.429199934005737,785.0
29.43919610977173,784.0
29.44915199279785,785.0
29.459672927856445,785.0
29.469111919403076,784.0
29.478721857070923,784.0
29.489804983139038,785.0
29.499988794326782,785.0
29.508769035339355,785.0
29.5192608833313,785.0
29.52894687652588,784.0
29.53992009162903,785.0
29.549973964691162,785.0
29.559877157211304,783.0
29.56948184967041,785.0
29.57921290397644,784.0
29.589147090911865,784.0
29.59960103034973,784.0
29.609737873077393,783.0
29.61921501159668,785.0
29.6287100315094,784.0
29.63979196548462,785.0
29.649977922439575,785.0
29.659798860549927,785.0
29.6692898273468,784.0
29.678972959518433,784.0
29.688849925994873,784.0
29.699557065963745,784.0
29.710138082504272,785.0
29.718547821044922,786.0
29.72926902770996,785.0
29.739202976226807,784.0
29.749505043029785,784.0
29.759581804275513,784.0
29.769068956375122,785.0
29.77864098548889,784.0
29.78964591026306,785.0
29.800037145614624,785.0
29.80876588821411,784.0
29.819323778152466,785.0
29.829020738601685,785.0
29.838932991027832,785.0
29.85000991821289,785.0
29.85955500602722,786.0
29.869050979614258,785.0
29.87866497039795,784.0
29.889684915542603,784.0
29.89997696876526,785.0
29.909673929214478,784.0
29.919196128845215,786.0
29.92870283126831,784.0
29.939821004867554,785.0
29.94996976852417,784.0
29.959743976593018,784.0
29.96924090385437,784.0
29.978627920150757,786.0
29.98958683013916,784.0
29.999864101409912,785.0
30.009779930114746,785.0
30.019320964813232,785.0
30.029034852981567,783.0
30.03894019126892,784.0
30.050036907196045,785.0
30.05970788002014,785.0
30.069267988204956,785.0
30.078969955444336,784.0
30.08885383605957,785.0
30.099857807159424,785.0
30.109543800354004,784.0
30.119004011154175,784.0
30.128594875335693,784.0
30.13966393470764,784.0
30.150052070617676,785.0
30.15879487991333,785.0
30.169415950775146,784.0
30.179152011871338,784.0
30.189082145690918,785.0
30.199462890625,785.0
30.209425926208496,785.0
30.21898102760315,784.0
30.228614807128906,784.0
30.239569902420044,785.0
30.2495698928833,785.0
30.25933003425598,784.0
30.268763065338135,784.0
30.27951693534851,785.0
30.28949999809265,785.0
30.299758911132812,784.0
30.309762001037598,785.0
30.319270849227905,785.0
30.328991889953613,785.0
30.338886737823486,783.0
30.34992003440857,785.0
30.359633922576904,784.0
30.369147062301636,784.0
30.378665924072266,785.0
30.389673948287964,785.0
30.400015115737915,784.0
30.40874195098877,784.0
30.419211864471436,784.0
30.428631067276,784.0
30.439591884613037,785.0
30.45003890991211,784.0
30.458744049072266,785.0
30.469259023666382,784.0
30.47871494293213,785.0
30.48975396156311,785.0
30.500019788742065,784.0
30.50880002975464,785.0
30.519333124160767,785.0
30.5290207862854,785.0
30.538909912109375,784.0
30.549968004226685,784.0
30.559617042541504,785.0
30.56909203529358,785.0
30.57866907119751,786.0
30.589634895324707,784.0
30.59997296333313,785.0
30.609672784805298,785.0
30.61924910545349,785.0
30.628684997558594,784.0
30.639729738235474,784.0
30.64997386932373,784.0
30.65968680381775,785.0
30.66920280456543,785.0
30.678700923919678,784.0
30.68967890739441,785.0
30.699974060058594,784.0
30.709694862365723,784.0
30.719177961349487,784.0
30.72865390777588,784.0
30.739665031433105,784.0
30.74997591972351,785.0
30.759685039520264,785.0
30.769235849380493,786.0
30.778644800186157,786.0
30.789703845977783,785.0
30.799969911575317,785.0
30.809770822525024,784.0
30.819249153137207,784.0
30.828700065612793,785.0
30.839729070663452,784.0
30.849971771240234,784.0
30.85966992378235,785.0
30.869149923324585,784.0
30.878641843795776,785.0
30.889569997787476,785.0
30.89969491958618,785.0
30.90968108177185,784.0
30.91919207572937,785.0
30.92865490913391,786.0
30.939620971679688,784.0
30.949930906295776,784.0
30.959769010543823,784.0
30.969211101531982,785.0
30.978660106658936,785.0
30.9896719455719,785.0
31.000038862228394,786.0
31.00879693031311,785.0
31.01924705505371,785.0
31.02869486808777,785.0
31.039719820022583,784.0
31.049973011016846,785.0
31.059718132019043,784.0
31.0691819190979,786.0
31.07863688468933,784.0
31.089601039886475,784.0
31.099976778030396,784.0
31.109786987304688,785.0
31.119308948516846,785.0
31.128997087478638,784.0
31.138992071151733,785.0
31.148897886276245,784.0
31.159898042678833,784.0
31.1694278717041,785.0
31.179117918014526,784.0
31.189119815826416,785.0
31.199497938156128,784.0
31.209617137908936,785.0
31.219164848327637,784.0
31.228638887405396,786.0
31.239606857299805,785.0
31.249969005584717,785.0
31.259767055511475,784.0
31.26927900314331,784.0
31.279011964797974,785.0
31.28894305229187,785.0
31.300034999847412,784.0
31.30874991416931,785.0
31.319249153137207,785.0
31.328672885894775,784.0
31.339673042297363,784.0
31.349977016448975,784.0
31.35874891281128,784.0
31.369250059127808,785.0
31.378665924072266,785.0
31.38965082168579,786.0
31.39997410774231,784.0
31.409716844558716,784.0
31.41921877861023,785.0
31.428988933563232,784.0
31.438929796218872,784.0
31.44998073577881,785.0
31.458727836608887,785.0
31.469244956970215,784.0
31.47872304916382,785.0
31.489876985549927,784.0
31.49996781349182,783.0
31.509801864624023,784.0
31.519306898117065,786.0
31.529030084609985,785.0
31.53891396522522,783.0
31.550022840499878,784.0
31.55876898765564,785.0
31.569278955459595,785.0
31.57901883125305,785.0
31.588987827301025,785.0
31.5989670753479,784.0
31.60952377319336,784.0
31.618985891342163,785.0
31.62972402572632,784.0
31.639741897583008,784.0
31.64996910095215,785.0
31.659709930419922,784.0
31.669158935546875,785.0
31.678699016571045,785.0
31.689724922180176,785.0
31.699975967407227,785.0
31.709722995758057,784.0
31.719221830368042,785.0
31.728705883026123,784.0
31.739726066589355,784.0
31.74997091293335,785.0
31.759830951690674,784.0
31.769350051879883,784.0
31.77907705307007,784.0
31.788998126983643,785.0
31.79936671257019,784.0
31.809396982192993,784.0
31.81885313987732,785.0
31.829535961151123,785.0
31.839484930038452,785.0
31.8495090007782,784.0
31.859614849090576,785.0
31.869102954864502,785.0
31.878694772720337,785.0
31.889739990234375,785.0
31.899970054626465,785.0
31.909723043441772,785.0
31.91929006576538,785.0
31.92895197868347,785.0
31.940103769302368,785.0
31.949510097503662,785.0
31.959582805633545,784.0
31.969075918197632,784.0
31.97862696647644,785.0
31.989634037017822,784.0
31.999972105026245,785.0
32.00979709625244,784.0
32.01915383338928,785.0
32.02862787246704,784.0
32.03960394859314,785.0
32.04997181892395,784.0
32.05979895591736,784.0
32.06937789916992,784.0
32.07911705970764,784.0
32.08904480934143,784.0
32.09946894645691,785.0
32.10945701599121,785.0
32.118913888931274,785.0
32.129616022109985,785.0
32.13960790634155,785.0
32.149972915649414,784.0
32.15975284576416,785.0
32.16928791999817,784.0
32.17896795272827,783.0
32.18998384475708,784.0
32.198806047439575,785.0
32.210150718688965,785.0
32.21859884262085,785.0
32.229331970214844,785.0
32.239240884780884,784.0
32.249510049819946,785.0
32.25956606864929,785.0
32.269071102142334,784.0
32.27865791320801,784.0
32.28968906402588,784.0
32.299973011016846,785.0
32.30973792076111,784.0
32.319226026535034,784.0
32.32862210273743,784.0
32.33961486816406,784.0
32.349969148635864,785.0
32.359808921813965,784.0
32.369303941726685,785.0
32.37910008430481,784.0
32.38904690742493,783.0
32.39949679374695,782.0
32.40958881378174,783.0
32.4191038608551,783.0
32.42864680290222,784.0
32.4395968914032,784.0
32.45000696182251,783.0
32.45883107185364,783.0
32.469403982162476,783.0
32.479130029678345,784.0
32.4890558719635,782.0
32.49900197982788,784.0
32.50961709022522,783.0
32.519122838974,783.0
32.52863311767578,783.0
32.539597034454346,783.0
32.549975872039795,782.0
32.55968499183655,783.0
32.569273948669434,783.0
32.5789737701416,782.0
32.58883714675903,783.0
32.59959602355957,783.0
32.61017394065857,783.0
32.61859893798828,784.0
32.62932300567627,784.0
32.6393027305603,784.0
32.649518966674805,784.0
32.65955877304077,784.0
32.66909694671631,784.0
32.67868781089783,784.0
32.6896607875824,783.0
32.69997000694275,784.0
32.70970010757446,785.0
32.71919107437134,784.0
32.72862696647644,784.0
32.739590883255005,784.0
32.750020027160645,785.0
32.75880002975464,785.0
32.76931715011597,784.0
32.779029846191406,784.0
32.78897404670715,784.0
32.79896378517151,784.0
32.80957889556885,785.0
32.81904983520508,785.0
32.82862210273743,784.0
32.83960485458374,785.0
32.85004377365112,784.0
32.85888981819153,784.0
32.86944508552551,785.0
32.879130125045776,785.0
32.88900184631348,785.0
32.898946046829224,784.0
32.90980505943298,785.0
32.91930103302002,784.0
32.929014921188354,784.0
32.93891501426697,785.0
32.94996976852417,784.0
32.959744930267334,785.0
32.96928000450134,786.0
32.97900104522705,785.0
32.98890805244446,785.0
32.999902963638306,784.0
33.00976204872131,785.0
33.019320011138916,784.0
33.029057025909424,785.0
33.03901481628418,784.0
33.04945087432861,785.0
33.0595440864563,784.0
33.06909894943237,784.0
33.078624963760376,786.0
33.089613914489746,785.0
33.09996485710144,784.0
33.109747886657715,784.0
33.11925911903381,784.0
33.12892484664917,784.0
33.13955283164978,784.0
33.14977407455444,782.0
33.15971803665161,783.0
33.169201135635376,783.0
33.178621768951416,783.0
33.1895809173584,780.0
33.19998097419739,782.0
33.20977306365967,782.0
33.21931600570679,781.0
33.22904992103577,782.0
33.23896598815918,781.0
33.2500319480896,782.0
33.258805990219116,782.0
33.269351959228516,783.0
33.279074907302856,782.0
33.289095878601074,782.0
33.299067735672,783.0
33.30970478057861,783.0
33.319257974624634,782.0
33.32895302772522,782.0
33.33885097503662,782.0
33.34954786300659,782.0
33.36009216308594,783.0
33.3684868812561,781.0
33.37912893295288,782.0
33.38904690742493,782.0
33.3994300365448,781.0
33.409624099731445,782.0
33.41915583610535,783.0
33.42866396903992,783.0
33.43970489501953,782.0
33.44997978210449,784.0
33.45874881744385,783.0
33.46928691864014,784.0
33.479000091552734,785.0
33.48885798454285,785.0
33.499906063079834,784.0
33.50978875160217,784.0
33.51929497718811,785.0
33.529019832611084,786.0
33.5389199256897,784.0
33.550053119659424,784.0
33.55967688560486,784.0
33.56919503211975,784.0
33.57863187789917,785.0
33.58965587615967,785.0
33.5999698638916,785.0
33.60979986190796,784.0
33.61929893493652,784.0
33.629021883010864,785.0
33.63892602920532,783.0
33.649359941482544,785.0
33.659502029418945,784.0
33.66897201538086,785.0
33.67977690696716,785.0
33.6898980140686,785.0
33.699963092803955,783.0
33.70978593826294,784.0
33.71926999092102,785.0
33.728646755218506,785.0
33.73963475227356,785.0
33.749963998794556,785.0
33.759681940078735,785.0
33.76912498474121,786.0
33.77861189842224,786.0
33.78960990905762,785.0
33.80003499984741,785.0
33.80878686904907,785.0
33.819247007369995,785.0
33.82896399497986,784.0
33.839964151382446,785.0
33.849382162094116,785.0
33.85951089859009,785.0
33.868974924087524,784.0
33.879679918289185,785.0
33.8896849155426,785.0
33.89996099472046,785.0
33.90973091125488,785.0
33.919275999069214,784.0
33.929067850112915,784.0
33.93907809257507,785.0
33.94951891899109,784.0
33.95969295501709,785.0
33.96921181678772,784.0
33.978618144989014,785.0
33.98957109451294,784.0
33.99990487098694,784.0
34.00979399681091,785.0
34.019320011138916,785.0
34.02904486656189,785.0
34.03899312019348,785.0
34.0490448474884,785.0
34.05958080291748,785.0
34.06903386116028,785.0
34.07869791984558,784.0
34.08971381187439,785.0
34.09996700286865,783.0
34.109943866729736,783.0
34.11957502365112,782.0
34.129359006881714,782.0
34.13928174972534,783.0
34.149497985839844,783.0
34.15960383415222,784.0
34.16904592514038,783.0
34.17861986160278,783.0
34.1896288394928,784.0
34.19996905326843,784.0
34.209778785705566,785.0
34.21926498413086,784.0
34.22869300842285,785.0
34.239744901657104,785.0
34.24998688697815,785.0
34.258785009384155,785.0
34.269388914108276,785.0
34.279340982437134,784.0
34.28943085670471,786.0
34.299590826034546,784.0
34.30959677696228,785.0
34.319100856781006,784.0
34.328683853149414,785.0
34.33980417251587,784.0
34.349960803985596,784.0
34.359654903411865,784.0
34.36909890174866,785.0
34.378604888916016,785.0
34.389601945877075,785.0
34.4000129699707,784.0
34.40879797935486,785.0
34.41928291320801,785.0
34.429007053375244,784.0
34.43909192085266,784.0
34.44956994056702,785.0
34.45953989028931,784.0
34.46904492378235,784.0
34.478660106658936,785.0
34.48904585838318,784.0
34.498687982559204,785.0
34.509819746017456,784.0
34.51932191848755,785.0
34.529090881347656,785.0
34.53925395011902,785.0
34.54953217506409,784.0
34.5595908164978,785.0
34.56911897659302,785.0
34.5786030292511,784.0
34.589619874954224,784.0
34.60000681877136,784.0
34.60881495475769,784.0
34.61937189102173,784.0
34.62910199165344,785.0
34.63900303840637,784.0
34.64894986152649,785.0
34.65977597236633,784.0
34.669299840927124,784.0
34.67894911766052,785.0
34.69003105163574,784.0
34.699540853500366,785.0
34.70968794822693,785.0
34.719228744506836,784.0
34.72890377044678,784.0
34.740009784698486,784.0
34.74951791763306,785.0
34.759583950042725,786.0
34.7691068649292,785.0
34.77861189842224,784.0
34.78964281082153,784.0
34.799968957901,784.0
34.80980706214905,784.0
34.81932473182678,784.0
34.829086780548096,784.0
34.83926296234131,784.0
34.849586963653564,785.0
34.85960602760315,784.0
34.8691828250885,785.0
34.878607988357544,784.0
34.88959503173828,784.0
34.90001392364502,784.0
34.90877103805542,785.0
34.91924691200256,784.0
34.928614139556885,784.0
34.939626932144165,784.0
34.94996690750122,784.0
34.95969080924988,785.0
34.96918082237244,785.0
34.97861194610596,785.0
34.98958683013916,785.0
34.99996781349182,785.0
35.00970482826233,784.0
35.01914691925049,784.0
35.02864408493042,784.0
35.03977394104004,784.0
35.050012826919556,784.0
35.05875492095947,785.0
35.06928086280823,784.0
35.0789737701416,785.0
35.08896780014038,784.0
35.09902000427246,783.0
35.109549045562744,785.0
35.11903095245361,784.0
35.128604888916016,785.0
35.1396689414978,784.0
35.14998388290405,786.0
35.159740924835205,784.0
35.16925597190857,785.0
35.17895174026489,784.0
35.19006586074829,785.0
35.19951677322388,785.0
35.20950198173523,784.0
35.21898293495178,784.0
35.22971796989441,784.0
35.239758014678955,784.0
35.24996590614319,785.0
35.25967502593994,785.0
35.2691388130188,786.0
35.27868103981018,785.0
35.28988194465637,785.0
35.29947376251221,785.0
35.30953788757324,785.0
35.31896185874939,785.0
35.32978892326355,785.0
35.33991193771362,784.0
35.34947180747986,785.0
35.35953187942505,785.0
35.3690140247345,786.0
35.37868905067444,785.0
35.389798164367676,785.0
35.4000129699707,785.0
35.40878105163574,784.0
35.41926693916321,784.0
35.42898988723755,785.0
35.4390549659729,784.0
35.449138879776,784.0
35.45968985557556,784.0
35.46922588348389,784.0
35.47864007949829,785.0
35.489644050598145,784.0
35.50003981590271,786.0
35.50876212120056,785.0
35.51929998397827,784.0
35.52895784378052,784.0
35.540071964263916,784.0
35.54956889152527,785.0
35.559569120407104,784.0
35.56906008720398,784.0
35.57868003845215,785.0
35.58978891372681,784.0
35.59995698928833,785.0
35.60968899726868,785.0
35.61914896965027,784.0
35.62866497039795,784.0
35.639718770980835,785.0
35.64995288848877,785.0
35.65964198112488,784.0
35.66902494430542,784.0
35.6786208152771,785.0
35.68960189819336,784.0
35.69996905326843,784.0
35.70971202850342,785.0
35.71930003166199,784.0
35.72902703285217,784.0
35.73892283439636,784.0
35.75002694129944,784.0
35.75874710083008,785.0
35.7692768573761,785.0
35.779003858566284,784.0
35.789072036743164,785.0
35.79952096939087,783.0
35.80951809883118,785.0
35.81892991065979,784.0
35.82969689369202,784.0
35.83963990211487,785.0
35.849907875061035,784.0
35.85966992378235,784.0
35.86916708946228,785.0
35.878599882125854,784.0
35.88965177536011,784.0
35.89997577667236,784.0
35.90968179702759,783.0
35.91912293434143,785.0
35.92867612838745,785.0
35.93973708152771,785.0
35.949958086013794,784.0
35.95965886116028,784.0
35.969099044799805,784.0
35.978758096694946,785.0
35.98992085456848,784.0
35.999377727508545,784.0
36.009469985961914,784.0
36.01893496513367,784.0
36.02970004081726,785.0
36.03979802131653,785.0
36.050023794174194,785.0
36.058716773986816,785.0
36.069265842437744,784.0
36.0790159702301,785.0
36.08896994590759,785.0
36.099493980407715,784.0
36.10961604118347,784.0
36.1191520690918,785.0
36.1286358833313,785.0
36.13967680931091,784.0
36.15002489089966,784.0
36.15870690345764,786.0
36.16919708251953,785.0
36.178632974624634,785.0
36.189650774002075,784.0
36.200050830841064,785.0
36.20878577232361,784.0
36.2192759513855,785.0
36.22906994819641,784.0
36.23910689353943,785.0
36.249557971954346,785.0
36.259621143341064,785.0
36.26923584938049,784.0
36.27897500991821,785.0
36.28902292251587,785.0
36.299253940582275,784.0
36.3099250793457,785.0
36.31944704055786,784.0
36.32917904853821,784.0
36.33919095993042,784.0
36.34951591491699,784.0
36.3595609664917,785.0
36.369022846221924,785.0
36.378631830215454,784.0
36.389612913131714,785.0
36.4000449180603,785.0
36.4088408946991,784.0
36.41937303543091,784.0
36.429115772247314,783.0
36.4391610622406,784.0
36.44930815696716,784.0
36.45995497703552,784.0
36.46947407722473,785.0
36.47924304008484,784.0
36.4893159866333,784.0
36.499491930007935,785.0
36.5095579624176,785.0
36.51905298233032,783.0
36.52862882614136,785.0
36.53958082199097,784.0
36.54997396469116,784.0
36.55966305732727,784.0
36.5691339969635,784.0
36.57866287231445,785.0
36.58971381187439,785.0
36.599955797195435,784.0
36.60972309112549,784.0
36.619225025177,784.0
36.62864303588867,784.0
36.63972592353821,785.0
36.64998483657837,785.0
36.65978002548218,784.0
36.66927886009216,784.0
36.67895483970642,785.0
36.69003391265869,784.0
36.69946908950806,785.0
36.70964598655701,785.0
36.719099044799805,784.0
36.72874093055725,786.0
36.73983192443848,784.0
36.74996089935303,785.0
36.75975179672241,784.0
36.769243001937866,785.0
36.778640031814575,784.0
36.78963804244995,784.0
36.79995799064636,786.0
36.80976891517639,785.0
36.81928014755249,784.0
36.82901692390442,784.0
36.83893299102783,784.0
36.84908699989319,784.0
36.85966205596924,785.0
36.869154930114746,784.0
36.878649950027466,785.0
36.889723777770996,785.0
36.89996576309204,785.0
36.909785985946655,785.0
36.919256925582886,785.0
36.92863392829895,785.0
36.93974709510803,785.0
36.94995880126953,786.0
36.95982098579407,784.0
36.969305992126465,784.0
36.97897219657898,786.0
36.98887586593628,785.0
37.00001883506775,785.0
37.009626150131226,785.0
37.01918983459473,784.0
37.02864193916321,784.0
37.03971886634827,784.0
37.050012826919556,785.0
37.058850049972534,784.0
37.06938099861145,784.0
37.079142808914185,784.0
37.08924698829651,785.0
37.09955096244812,785.0
37.10960507392883,785.0
37.119072914123535,784.0
37.128636837005615,784.0
37.13968777656555,784.0
37.149956941604614,784.0
37.15971493721008,784.0
37.169169187545776,785.0
37.17862892150879,785.0
37.18959617614746,784.0
37.200026988983154,784.0
37.20887088775635,785.0
37.21940994262695,785.0
37.22908401489258,785.0
37.238932847976685,784.0
37.25007510185242,784.0
37.259697914123535,785.0
37.26925492286682,785.0
37.278969049453735,785.0
37.28869080543518,785.0
37.29956603050232,784.0
37.31016182899475,784.0
37.31858706474304,784.0
37.329309940338135,784.0
37.339340925216675,785.0
37.3497850894928,785.0
37.35945796966553,784.0
37.36892580986023,785.0
37.379740953445435,785.0
37.389699935913086,785.0
37.39996790885925,784.0
37.40980505943298,785.0
37.41934680938721,785.0
37.429128885269165,784.0
37.439186811447144,784.0
37.449511766433716,785.0
37.4595890045166,784.0
37.46905493736267,785.0
37.47863483428955,785.0
37.4896559715271,786.0
37.499953746795654,784.0
37.50978708267212,785.0
37.519267082214355,784.0
37.528972864151,784.0
37.53897285461426,785.0
37.54922890663147,785.0
37.55987286567688,784.0
37.56936693191528,785.0
37.57918095588684,785.0
37.58926510810852,784.0
37.5995078086853,784.0
37.60970687866211,785.0
37.61915111541748,784.0
37.62863779067993,784.0
37.639638900756836,785.0
37.64995193481445,785.0
37.65971493721008,785.0
37.66917085647583,783.0
37.678630113601685,785.0
37.689680099487305,784.0
37.69997596740723,786.0
37.709742069244385,784.0
37.71921896934509,785.0
37.72863578796387,785.0
37.73960494995117,784.0
37.74996495246887,784.0
37.75970506668091,785.0
37.76918077468872,785.0
37.77864193916321,785.0
37.789610862731934,783.0
37.79999899864197,784.0
37.80884909629822,786.0
37.81937599182129,784.0
37.82903289794922,786.0
37.83888506889343,784.0
37.85000014305115,785.0
37.85955595970154,784.0
37.86903500556946,784.0
37.878661155700684,785.0
37.88979506492615,784.0
37.9000039100647,785.0
37.90889596939087,785.0
37.91948103904724,784.0
37.92918086051941,784.0
37.93905782699585,784.0
37.94913101196289,784.0
37.959717988967896,784.0
37.96911406517029,784.0
37.97864389419556,785.0
37.989725828170776,784.0
37.999963998794556,785.0
38.00983810424805,785.0
38.01937699317932,785.0
38.029141902923584,785.0
38.03918409347534,785.0
38.049574851989746,784.0
38.0596718788147,784.0
38.06914186477661,785.0
38.07864284515381,784.0
38.089699029922485,784.0
38.09996700286865,785.0
38.10970997810364,784.0
38.11929798126221,785.0
38.12900185585022,785.0
38.139142751693726,784.0
38.14954113960266,784.0
38.15966987609863,785.0
38.16919279098511,785.0
38.17863392829895,783.0
38.18947982788086,785.0
38.19988179206848,784.0
38.2096791267395,784.0
38.21913290023804,784.0
38.2286639213562,785.0
38.23971199989319,784.0
38.249999046325684,785.0
38.258788108825684,784.0
38.26931285858154,784.0
38.27901887893677,786.0
38.288959980010986,785.0
38.299959897994995,785.0
38.3096649646759,784.0
38.319135904312134,784.0
38.328638792037964,785.0
38.33969712257385,784.0
38.34995985031128,785.0
38.359769105911255,785.0
38.369338035583496,784.0
38.37909197807312,785.0
38.38914394378662,785.0
38.39958190917969,784.0
38.40969109535217,785.0
38.419158935546875,784.0
38.428650856018066,784.0
38.43973088264465,784.0
38.450026988983154,784.0
38.45885396003723,784.0
38.46938109397888,785.0
38.47910809516907,784.0
38.48905682563782,785.0
38.49949312210083,784.0
38.5095329284668,785.0
38.51899600028992,784.0
38.52970290184021,785.0
38.539713859558105,785.0
38.549970865249634,784.0
38.559778928756714,785.0
38.56924104690552,784.0
38.5786337852478,784.0
38.58964395523071,784.0
38.6000189781189,786.0
38.60880494117737,785.0
38.61932301521301,786.0
38.62906002998352,786.0
38.63901686668396,785.0
38.649062156677246,784.0
38.659806966781616,785.0
38.66928505897522,784.0
38.6786470413208,786.0
38.68972110748291,785.0
38.699957847595215,785.0
38.70982074737549,785.0
38.719330072402954,786.0
38.729042768478394,786.0
38.73904609680176,786.0
38.74964499473572,785.0
38.75976276397705,784.0
38.769243001937866,786.0
38.778635025024414,784.0
38.78967094421387,785.0
38.79995894432068,785.0
38.80977201461792,784.0
38.81926608085632,785.0
38.82867884635925,785.0
38.83976697921753,785.0
38.84996199607849,784.0
38.85978293418884,784.0
38.86933398246765,784.0
38.87907886505127,785.0
38.88898301124573,785.0
38.89938497543335,785.0
38.90959310531616,785.0
38.9191210269928,784.0
38.92865490913391,784.0
38.939666748046875,784.0
38.950031995773315,785.0
38.958791971206665,785.0
38.96937012672424,785.0
38.979132890701294,785.0
38.98923993110657,785.0
38.999480962753296,784.0
39.0094268321991,785.0
39.0189208984375,785.0
39.02965497970581,785.0
39.03973913192749,785.0
39.04994988441467,785.0
39.05966091156006,785.0
39.06910300254822,784.0
39.0788037776947,784.0
39.09011507034302,785.0
39.09952688217163,785.0
39.10956597328186,785.0
39.11911082267761,785.0
39.12867093086243,785.0
39.13981103897095,784.0
39.14999794960022,784.0
39.15973401069641,784.0
39.16924595832825,784.0
39.17867588996887,784.0
39.189910888671875,785.0
39.199952125549316,784.0
39.209534883499146,783.0
39.219014167785645,785.0
39.22864508628845,785.0
39.23965001106262,784.0
39.24994874000549,785.0
39.25971603393555,784.0
39.269232988357544,784.0
39.27864384651184,784.0
39.28972101211548,785.0
39.29996991157532,785.0
39.309666872024536,784.0
39.319143772125244,785.0
39.32863402366638,784.0
39.33964490890503,784.0
39.35000991821289,784.0
39.35876798629761,785.0
39.369377851486206,783.0
39.37906885147095,785.0
39.38903284072876,786.0
39.39943194389343,784.0
39.40943694114685,784.0
39.418907165527344,784.0
39.42980098724365,784.0
39.44000601768494,784.0
39.44953012466431,785.0
39.45959496498108,784.0
39.46903085708618,785.0
39.47974395751953,784.0
39.48981809616089,784.0
39.50002408027649,785.0
39.50873398780823,785.0
39.51920676231384,785.0
39.52867603302002,785.0
39.53981685638428,786.0
39.54995393753052,785.0
39.55978798866272,785.0
39.56932187080383,785.0
39.578989028930664,784.0
39.590022802352905,784.0
39.599498987197876,784.0
39.609670877456665,785.0
39.61918306350708,785.0
39.628649950027466,785.0
39.639657974243164,784.0
39.64994978904724,785.0
39.659664154052734,785.0
39.66920804977417,785.0
39.67869591712952,785.0
39.689799785614014,784.0
39.69997787475586,784.0
39.70978093147278,785.0
39.71927499771118,784.0
39.728636741638184,785.0
39.73958897590637,785.0
39.74999690055847,784.0
39.75968599319458,784.0
39.769043922424316,784.0
39.77862596511841,786.0
39.78966283798218,785.0
39.799959897994995,785.0
39.80970001220703,785.0
39.819164752960205,785.0
39.82865500450134,785.0
39.83971095085144,785.0
39.84998393058777,784.0
39.85967206954956,785.0
39.86914610862732,785.0
39.878644943237305,785.0
39.88974189758301,785.0
39.8999559879303,785.0
39.909722089767456,785.0
39.91918087005615,785.0
39.928648948669434,784.0
39.93976807594299,785.0
39.94995594024658,785.0
39.9597008228302,784.0
39.969172954559326,785.0
39.97873497009277,783.0
39.989837884902954,785.0
39.99996304512024,785.0
40.009729862213135,784.0
40.019237995147705,785.0
40.028656005859375,785.0
40.03974485397339,784.0
40.04995083808899,785.0
40.05981397628784,785.0
40.06936693191528,784.0
40.0792350769043,784.0
40.08940577507019,784.0
40.09984493255615,785.0
40.109734773635864,785.0
40.11933779716492,785.0
40.12908101081848,786.0
40.13907194137573,785.0
40.149521827697754,783.0
40.159579038619995,784.0
40.16900992393494,785.0
40.17981696128845,784.0
40.189701080322266,785.0
40.19996786117554,784.0
40.20971488952637,785.0
40.21924805641174,784.0
40.22865295410156,784.0
40.23962593078613,785.0
40.25001096725464,785.0
40.2588210105896,785.0
40.269343852996826,784.0
40.27914476394653,785.0
40.28924489021301,784.0
40.299497842788696,785.0
40.309574842453,786.0
40.318994760513306,785.0
40.32980298995972,785.0
40.339909076690674,783.0
40.349393129348755,784.0
40.35938596725464,785.0
40.36882495880127,785.0
40.3795051574707,784.0
40.389549016952515,784.0
40.399949073791504,784.0
40.40969705581665,784.0
40.419249057769775,785.0
40.4286949634552,784.0
40.43975806236267,785.0
40.44995713233948,784.0
40.45970606803894,784.0
40.46917915344238,784.0
40.47864890098572,785.0
40.48960614204407,785.0
40.49994993209839,785.0
40.50970697402954,785.0
40.51916313171387,785.0
40.52872014045715,785.0
40.53982400894165,786.0
40.54994773864746,785.0
40.559701919555664,785.0
40.56925582885742,784.0
40.578683853149414,785.0
40.58984994888306,785.0
40.59996581077576,785.0
40.60969281196594,785.0
40.6191520690918,784.0
40.628762006759644,785.0
40.639939069747925,785.0
40.64897608757019,784.0
40.65918684005737,785.0
40.66863298416138,785.0
40.67936611175537,784.0
40.68936014175415,785.0
40.69961595535278,784.0
40.70970392227173,784.0
40.7192177772522,784.0
40.7287118434906,784.0
40.73979306221008,785.0
40.75003695487976,784.0
40.758837938308716,786.0
40.76942586898804,786.0
40.77913498878479,784.0
40.78903007507324,785.0
40.79910182952881,784.0
40.809794902801514,785.0
40.81928491592407,785.0
40.82864785194397,785.0
40.83972907066345,784.0
40.849956035614014,784.0
40.85967993736267,784.0
40.86924481391907,785.0
40.87899899482727,784.0
40.88908100128174,785.0
40.89927792549133,785.0
40.909937143325806,785.0
40.9194438457489,786.0
40.929178953170776,785.0
40.93935298919678,784.0
40.94954490661621,785.0
40.95967411994934,785.0
40.96913290023804,786.0
40.97874712944031,785.0
40.989904165267944,785.0
40.99946212768555,784.0
41.00953793525696,785.0
41.01903796195984,784.0
41.0286750793457,784.0
41.03965783119202,785.0
41.04996299743652,785.0
41.05964112281799,784.0
41.06908679008484,784.0
41.07868790626526,784.0
41.08968806266785,786.0
41.10002779960632,784.0
41.1087749004364,785.0
41.11923408508301,784.0
41.128713846206665,785.0
41.13982796669006,784.0
41.14995288848877,785.0
41.15969777107239,784.0
41.16915988922119,785.0
41.178719997406006,784.0
41.18993782997131,784.0
41.1994149684906,784.0
41.209473848342896,783.0
41.21891498565674,784.0
41.22967076301575,785.0
41.23960494995117,785.0
41.24995493888855,785.0
41.259708881378174,785.0
41.26918601989746,784.0
41.27864599227905,784.0
41.28964591026306,786.0
41.30004596710205,785.0
41.30884599685669,784.0
41.31946110725403,784.0
41.32928395271301,784.0
41.339235067367554,784.0
41.349478006362915,785.0
41.35946488380432,785.0
41.36894392967224,784.0
41.37972974777222,784.0
41.389747858047485,785.0
41.399949073791504,784.0
41.409687995910645,784.0
41.419187784194946,785.0
41.42864775657654,785.0
41.439598083496094,784.0
41.449965953826904,785.0
41.4598069190979,784.0
41.469356060028076,784.0
41.47906184196472,783.0
41.489035844802856,785.0
41.4995858669281,786.0
41.509663820266724,785.0
41.51912593841553,784.0
41.528671979904175,784.0
41.53966498374939,786.0
41.549947023391724,785.0
41.55970501899719,785.0
41.569178104400635,784.0
41.578737020492554,785.0
41.5898380279541,785.0
41.59994888305664,785.0
41.609723806381226,784.0
41.61918497085571,784.0
41.62871694564819,784.0
41.63983678817749,783.0
41.6499559879303,785.0
41.65971803665161,784.0
41.66920590400696,784.0
41.678648948669434,785.0
41.68961715698242,785.0
41.69995999336243,784.0
41.709665060043335,785.0
41.71919512748718,785.0
41.72864294052124,785.0
41.739750146865845,785.0
41.74994874000549,784.0
41.759695053100586,785.0
41.7691388130188,785.0
41.778650999069214,785.0
41.78971791267395,785.0
41.799952030181885,785.0
41.809720039367676,784.0
41.819183111190796,784.0
41.82865500450134,785.0
41.83964204788208,784.0
41.8500337600708,785.0
41.85874080657959,784.0
41.86932182312012,785.0
41.87907886505127,785.0
41.889177083969116,785.0
41.899507999420166,785.0
41.90950894355774,786.0
41.91898989677429,785.0
41.92977786064148,784.0
41.9399299621582,785.0
41.94947290420532,784.0
41.959681034088135,785.0
41.969170808792114,785.0
41.97863292694092,785.0
41.98961615562439,785.0
41.9999520778656,785.0
42.009721994400024,785.0
42.01918292045593,784.0
42.0286819934845,785.0
42.03976488113403,784.0
42.05005478858948,785.0
42.058769941329956,784.0
42.06925415992737,784.0
42.07878494262695,785.0
42.090049028396606,784.0
42.0994930267334,784.0
42.10958409309387,784.0
42.11911487579346,784.0
42.128623962402344,784.0
42.13959789276123,785.0
42.14997386932373,784.0
42.15882682800293,785.0
42.16946887969971,784.0
42.17926287651062,785.0
42.18935585021973,785.0
42.199578046798706,784.0
42.20966291427612,784.0
42.21916484832764,785.0
42.228614807128906,784.0
42.239627838134766,784.0
42.24995398521423,784.0
42.259767055511475,785.0
42.26932406425476,785.0
42.27917790412903,785.0
42.289238929748535,785.0
42.29949593544006,784.0
42.309499740600586,784.0
42.318920850753784,784.0
42.32971787452698,785.0
42.339823961257935,784.0
42.350038051605225,785.0
42.35880494117737,785.0
42.369434118270874,784.0
42.379117012023926,785.0
42.38915705680847,784.0
42.39956593513489,785.0
42.40965294837952,785.0
42.41914105415344,785.0
42.42867183685303,785.0
42.43974590301514,785.0
42.44995403289795,785.0
42.45973181724548,785.0
42.46920895576477,785.0
42.47870898246765,785.0
42.48987317085266,784.0
42.49945902824402,785.0
42.50955581665039,784.0
42.519091844558716,785.0
42.52875375747681,785.0
42.539883852005005,784.0
42.54994511604309,783.0
42.55968880653381,783.0
42.56912398338318,785.0
42.578611850738525,784.0
42.58964490890503,784.0
42.59996199607849,784.0
42.60977792739868,784.0
42.61924695968628,784.0
42.62904906272888,784.0
42.63915681838989,785.0
42.649493932724,784.0
42.659467935562134,784.0
42.66892886161804,784.0
42.67975902557373,784.0
42.689982891082764,784.0
42.69944906234741,784.0
42.709513902664185,784.0
42.7189507484436,784.0
42.72961187362671,785.0
42.73954200744629,785.0
42.749505043029785,786.0
42.75969099998474,785.0
42.7691969871521,785.0
42.77861189842224,784.0
42.78958797454834,784.0
42.79994797706604,785.0
42.80984282493591,785.0
42.81938409805298,784.0
42.829086780548096,784.0
42.839115858078,784.0
42.849570989608765,784.0
42.85959482192993,785.0
42.86903500556946,785.0
42.87980008125305,784.0
42.88886284828186,784.0
42.89948487281799,786.0
42.9096360206604,785.0
42.91915798187256,785.0
42.92861580848694,785.0
42.93972396850586,785.0
42.94995880126953,785.0
42.959705114364624,785.0
42.969167947769165,784.0
42.97869110107422,784.0
42.98974800109863,784.0
43.000000953674316,784.0
43.00969099998474,785.0
43.01923608779907,784.0
43.028624057769775,785.0
43.039782762527466,785.0
43.04996609687805,786.0
43.059584856033325,784.0
43.06905698776245,784.0
43.078620195388794,784.0
43.08969283103943,784.0
43.09996199607849,785.0
43.10983395576477,784.0
43.11939191818237,786.0
43.12930393218994,785.0
43.139272928237915,784.0
43.149482011795044,784.0
43.159502029418945,785.0
43.168980836868286,784.0
43.17974591255188,784.0
43.18971300125122,784.0
43.199931144714355,785.0
43.209506034851074,784.0
43.218924045562744,785.0
43.22968912124634,784.0
43.23982000350952,784.0
43.24994874000549,784.0
43.259814739227295,785.0
43.269428968429565,785.0
43.27918195724487,785.0
43.28922200202942,785.0
43.2995388507843,784.0
43.309690952301025,784.0
43.319209814071655,784.0
43.32893896102905,785.0
43.340070724487305,785.0
43.34949588775635,784.0
43.359593868255615,785.0
43.36910891532898,785.0
43.37868690490723,784.0
43.389809131622314,785.0
43.3999547958374,785.0
43.40973091125488,784.0
43.41920304298401,784.0
43.42862296104431,785.0
43.43972301483154,784.0
43.4499728679657,785.0
43.45969605445862,784.0
43.46915888786316,785.0
43.478609800338745,784.0
43.48959994316101,786.0
43.50000190734863,784.0
43.5088369846344,785.0
43.51941180229187,784.0
43.5291588306427,784.0
43.5392119884491,785.0
43.54951071739197,784.0
43.55954098701477,785.0
43.56895899772644,785.0
43.57966899871826,784.0
43.58970499038696,785.0
43.59996700286865,786.0
43.60980296134949,785.0
43.61928701400757,784.0
43.62906098365784,785.0
43.639145851135254,785.0
43.64951014518738,784.0
43.6595618724823,785.0
43.66908884048462,784.0
43.678624868392944,784.0
43.68971300125122,785.0
43.70000886917114,786.0
43.70884299278259,784.0
43.719398021698,784.0
43.72925591468811,785.0
43.739282846450806,785.0
43.74951195716858,785.0
43.75963497161865,784.0
43.76913499832153,785.0
43.77860498428345,785.0
43.78966689109802,785.0
43.799968004226685,784.0
43.80972480773926,785.0
43.819212913513184,785.0
43.82861304283142,784.0
43.83966088294983,785.0
43.85000491142273,784.0
43.85970997810364,785.0
43.8691680431366,785.0
43.87864112854004,784.0
43.8897910118103,785.0
43.89994215965271,783.0
43.90977716445923,784.0
43.919283866882324,785.0
43.92898988723755,784.0
43.939054012298584,785.0
43.94960308074951,785.0
43.95967411994934,784.0
43.96912598609924,784.0
43.97866988182068,785.0
43.990033864974976,785.0
43.99944496154785,784.0
44.00957679748535,785.0
44.019059896469116,785.0
44.02859592437744,784.0
44.03967094421387,784.0
44.049943923950195,784.0
44.05970597267151,784.0
44.069164991378784,784.0
44.07869791984558,785.0
44.0898699760437,785.0
44.099947929382324,784.0
44.10971474647522,784.0
44.11925792694092,784.0
44.129021883010864,784.0
44.139050006866455,784.0
44.14950084686279,784.0
44.15953993797302,784.0
44.169018030166626,784.0
44.17991399765015,785.0
44.188886880874634,784.0
44.19994497299194,783.0
44.209683895111084,784.0
44.21921396255493,784.0
44.22867393493652,785.0
44.23962903022766,784.0
44.250009059906006,785.0
44.25956916809082,785.0
44.26905012130737,784.0
44.27978801727295,784.0
44.28970789909363,785.0
44.29995799064636,785.0
44.30967378616333,785.0
44.31920289993286,785.0
44.3289430141449,785.0
44.34007906913757,785.0
44.34949803352356,784.0
44.35950589179993,785.0
44.36905288696289,785.0
44.37860989570618,784.0
44.38970994949341,784.0
44.39997577667236,784.0
44.40965986251831,784.0
44.41913294792175,785.0
44.42860698699951,784.0
44.439533948898315,784.0
44.44955110549927,786.0
44.45968675613403,784.0
44.4692268371582,784.0
44.47864603996277,784.0
44.48975610733032,785.0
44.49995684623718,784.0
44.50980281829834,785.0
44.51935577392578,785.0
44.529048919677734,783.0
44.539018869400024,785.0
44.549558877944946,785.0
44.55977392196655,785.0
44.56932187080383,784.0
44.579025745391846,785.0
44.58900713920593,784.0
44.59994101524353,786.0
44.60962891578674,784.0
44.61913990974426,784.0
44.62864089012146,784.0
44.63978886604309,786.0
44.64997601509094,784.0
44.6596999168396,785.0
44.669212102890015,784.0
44.67860698699951,785.0
44.68965792655945,785.0
44.699942111968994,784.0
44.709736824035645,785.0
44.719239950180054,784.0
44.72898888587952,785.0
44.74012494087219,784.0
44.749565839767456,786.0
44.75965189933777,785.0
44.76913094520569,784.0
44.778640031814575,784.0
44.78958296775818,785.0
44.79999589920044,785.0
44.809629917144775,785.0
44.81910705566406,786.0
44.828601121902466,784.0
44.83959484100342,784.0
44.84996485710144,785.0
44.85964107513428,786.0
44.86913514137268,785.0
44.87863492965698,785.0
44.889758825302124,785.0
44.8999400138855,785.0
44.90968108177185,784.0
44.9191620349884,784.0
44.92867994308472,784.0
44.93983578681946,784.0
44.949941873550415,785.0
44.959681034088135,784.0
44.96918487548828,785.0
44.978641748428345,785.0
44.989805936813354,786.0
44.99995994567871,784.0
45.00978398323059,784.0
45.01917576789856,784.0
45.02860379219055,785.0
45.039671897888184,785.0
45.04996085166931,784.0
45.05978274345398,785.0
45.06932187080383,786.0
45.07903504371643,785.0
45.089081048965454,785.0
45.09949088096619,784.0
45.10942888259888,784.0
45.1189649105072,785.0
45.12950587272644,785.0
45.139548778533936,784.0
45.150038957595825,785.0
45.15873599052429,784.0
45.16922688484192,785.0
45.179141998291016,785.0
45.18927502632141,784.0
45.19957089424133,785.0
45.209677934646606,786.0
45.219199895858765,785.0
45.22862982749939,785.0
45.239672899246216,784.0
45.24994707107544,786.0
45.25963497161865,785.0
45.26908802986145,785.0
45.27859807014465,784.0
45.28955793380737,784.0
45.30002498626709,785.0
45.308804988861084,785.0
45.31935095787048,784.0
45.32904100418091,784.0
45.338642835617065,784.0
45.3494770526886,783.0
45.35999894142151,785.0
45.36953115463257,784.0
45.3792450428009,785.0
45.38916611671448,784.0
45.3994779586792,785.0
45.409590005874634,785.0
45.41907715797424,785.0
45.42859888076782,785.0
45.43969774246216,786.0
45.4499409198761,785.0
45.459720849990845,783.0
45.46932816505432,784.0
45.47904300689697,784.0
45.48898506164551,784.0
45.49994993209839,783.0
45.50967788696289,784.0
45.51911497116089,785.0
45.528592109680176,784.0
45.539546966552734,784.0
45.549954891204834,784.0
45.5596649646759,785.0
45.56920003890991,784.0
45.57859492301941,784.0
45.5895459651947,785.0
45.59995794296265,785.0
45.609636068344116,784.0
45.61908292770386,786.0
45.62865400314331,784.0
45.63980007171631,784.0
45.649948835372925,786.0
45.65977191925049,784.0
45.669376850128174,784.0
45.67915892601013,783.0
45.689104080200195,785.0
45.69946599006653,785.0
45.70949983596802,784.0
45.71899890899658,784.0
45.72945594787598,785.0
45.739408016204834,784.0
45.74957585334778,784.0
45.75962591171265,786.0
45.76913094520569,785.0
45.77860188484192,783.0
45.78965091705322,784.0
45.79997110366821,784.0
45.80968904495239,785.0
45.81921100616455,784.0
45.82859802246094,785.0
45.83960175514221,784.0
45.849956035614014,785.0
45.85964393615723,784.0
45.869115114212036,785.0
45.878604888916016,785.0
45.88965606689453,784.0
45.900026082992554,784.0
45.90880608558655,784.0
45.919331073760986,784.0
45.92902088165283,784.0
45.94010901451111,785.0
45.9495210647583,784.0
45.95957279205322,785.0
45.96904182434082,784.0
45.97968792915344,784.0
45.98974299430847,784.0
45.99993896484375,785.0
46.00969696044922,784.0
46.01919889450073,785.0
46.02859687805176,784.0
46.03956079483032,784.0
46.04996991157532,785.0
46.05962800979614,785.0
46.069116830825806,783.0
46.078583002090454,784.0
46.089523792266846,785.0
46.09950089454651,784.0
46.109559059143066,784.0
46.11900591850281,784.0
46.129809856414795,785.0
46.13981580734253,784.0
46.149476051330566,784.0
46.159547090530396,784.0
46.1690239906311,784.0
46.17975902557373,784.0
46.18984889984131,784.0
46.199936866760254,784.0
46.20966196060181,785.0
46.219106912612915,785.0
46.228622913360596,785.0
46.239644050598145,785.0
46.24993896484375,784.0
46.25981593132019,785.0
46.269471883773804,784.0
46.27931594848633,784.0
46.289254903793335,785.0
46.29949903488159,784.0
46.309457778930664,785.0
46.31892991065979,786.0
46.329654932022095,784.0
46.3397171497345,784.0
46.34994196891785,785.0
46.35978579521179,785.0
46.369383811950684,784.0
46.37914204597473,784.0
46.38917899131775,784.0
46.39945888519287,784.0
46.40942096710205,785.0
46.418838024139404,784.0
46.429534912109375,784.0
46.4394268989563,786.0
46.44949293136597,785.0
46.45950412750244,785.0
46.46900486946106,784.0
46.47984504699707,785.0
46.48994708061218,784.0
46.49993395805359,784.0
46.5097930431366,784.0
46.519383907318115,784.0
46.529085874557495,784.0
46.53899312019348,785.0
46.54994511604309,784.0
46.55958914756775,784.0
46.569061040878296,785.0
46.57978105545044,784.0
46.589799880981445,785.0
46.599953174591064,786.0
46.60968804359436,784.0
46.61920404434204,784.0
46.628917932510376,784.0
46.64001512527466,785.0
46.6495201587677,784.0
46.65958094596863,785.0
46.6690731048584,784.0
46.678624868392944,786.0
46.68970584869385,785.0
46.69996094703674,784.0
46.709688901901245,784.0
46.71919298171997,785.0
46.728657722473145,784.0
46.739810943603516,784.0
46.74993395805359,785.0
46.75969886779785,784.0
46.76925206184387,784.0
46.77890610694885,785.0
46.790050983428955,785.0
46.79947209358215,785.0
46.809487104415894,785.0
46.818917989730835,784.0
46.82973313331604,785.0
46.8399338722229,786.0
46.84993505477905,786.0
46.85964298248291,785.0
46.86911392211914,784.0
46.87867474555969,784.0
46.88982391357422,784.0
46.89995884895325,785.0
46.90975999832153,784.0
46.919310092926025,785.0
46.92898988723755,785.0
46.940102100372314,784.0
46.94955801963806,784.0
46.959599018096924,785.0
46.96903085708618,785.0
46.97977805137634,786.0
46.98982906341553,785.0
47.00002408027649,784.0
47.00873112678528,784.0
47.019213914871216,785.0
47.02891993522644,784.0
47.040048122406006,784.0
47.04948091506958,786.0
47.05950999259949,785.0
47.0689971446991,784.0
47.07974600791931,785.0
47.08987474441528,783.0
47.099403858184814,784.0
47.10953998565674,784.0
47.119048833847046,785.0
47.128623962402344,785.0
47.13977909088135,785.0
47.149956941604614,784.0
47.15966987609863,785.0
47.16918396949768,785.0
47.17868208885193,785.0
47.18993306159973,784.0
47.199933767318726,784.0
47.209510803222656,784.0
47.21897101402283,784.0
47.229851961135864,784.0
47.23995304107666,784.0
47.249943017959595,784.0
47.259591817855835,784.0
47.269071102142334,784.0
47.278602838516235,783.0
47.28960394859314,785.0
47.29994583129883,784.0
47.30963706970215,784.0
47.31920790672302,783.0
47.328927993774414,785.0
47.340115785598755,784.0
47.34955906867981,784.0
47.35962390899658,785.0
47.369112968444824,784.0
47.37857508659363,784.0
47.38949179649353,784.0
47.399482011795044,784.0
47.40953993797302,783.0
47.41898488998413,784.0
47.42969989776611,783.0
47.439239740371704,783.0
47.44952702522278,784.0
47.45925712585449,784.0
47.4686918258667,783.0
47.47942590713501,783.0
47.48941087722778,783.0
47.499480962753296,783.0
47.50948405265808,782.0
47.51890993118286,783.0
47.529654026031494,783.0
47.53952980041504,783.0
47.5495719909668,783.0
