time,ch0,ch1,ch2
0.186,4095,150,179
0.193,182,151,4095
0.199,147,157,4095
0.205,4095,4095,176
0.211,108,4095,4095
0.218,103,4095,139
0.224,4095,4095,256
0.229,327,315,4095
0.236,189,154,163
0.241,4095,142,173
0.248,176,160,4095
0.254,149,144,4095
0.26,4095,4095,173
0.266,109,4095,4095
0.273,143,4095,139
0.278,4095,4095,266
0.285,410,4095,4095
0.291,187,137,145
0.298,4095,157,144
0.305,157,156,4095
0.311,307,560,4095
0.318,4095,4095,183
0.325,128,4095,4095
0.332,104,4095,126
0.338,4095,4095,255
0.344,322,3552,4095
0.351,4095,148,157
0.358,4095,145,166
0.365,178,144,4095
0.371,151,153,4095
0.377,4095,4095,151
0.383,103,4095,4095
0.391,98,4095,146
0.398,4095,4095,289
0.404,338,315,4095
0.41,213,143,155
0.416,4095,135,151
0.423,176,140,4095
0.429,151,144,4095
0.435,4095,4095,160
0.441,112,4095,4095
0.448,106,4095,161
0.454,4095,4095,239
0.461,3659,4095,4095
0.468,188,139,145
0.474,4095,137,150
0.481,152,151,4095
0.488,381,591,4095
0.494,4095,4095,167
0.501,124,4095,4095
0.507,107,4095,145
0.515,4095,4095,359
0.521,338,4095,4095
0.528,4095,144,156
0.535,4095,116,160
0.546,199,151,4095
0.563,158,176,4095
0.571,4095,4095,162
0.58,103,4095,4095
0.587,102,4095,130
0.596,4095,4095,240
0.604,337,324,4095
0.612,192,144,144
0.621,4095,144,162
0.629,171,164,4095
0.637,144,162,4095
0.645,4095,4095,173
0.654,113,4095,4095
0.661,144,4095,159
0.668,4095,4095,295
0.675,447,4095,4095
0.682,189,145,144
0.688,4095,143,162
0.694,156,147,4095
0.704,240,502,4095
0.711,4095,4095,182
0.721,117,4095,4095
0.729,106,4095,150
0.735,4095,4095,277
0.742,323,4095,4095
0.748,4095,145,157
0.755,4095,142,159
0.762,166,162,4095
0.768,159,144,4095
0.775,4095,4095,164
0.782,98,4095,4095
0.788,107,4095,131
0.795,4095,4095,288
0.803,329,305,4095
0.809,196,159,235
0.816,4095,144,179
0.823,169,161,4095
0.83,152,155,4095
0.838,4095,4095,176
0.845,107,4095,4095
0.851,109,4095,144
0.858,4095,4095,261
0.864,4095,4095,4095
0.87,200,151,148
0.88,4095,143,176
0.887,159,147,4095
0.893,254,487,4095
0.9,4095,4095,192
0.906,192,4095,4095
0.913,98,4095,144
0.919,4095,4095,256
0.925,320,4095,4095
0.932,4095,142,144
0.938,4095,144,171
0.947,1531,161,4095
0.954,154,122,4095
0.962,4095,4095,173
0.97,105,4095,4095
0.978,112,4095,151
0.987,4095,4095,260
0.995,336,307,4095
1.001,205,112,151
1.008,4095,144,144
1.015,163,144,4095
1.021,162,148,4095
1.027,4095,4095,173
1.034,111,4095,4095
1.04,134,4095,214
1.047,4095,4095,263
1.053,1840,882,4095
1.059,203,139,151
1.065,4095,151,166
1.071,165,160,4095
1.077,221,462,4095
1.085,4095,4095,189
1.091,115,4095,4095
1.098,96,4095,144
1.104,4095,4095,234
1.11,349,4095,4095
1.116,4095,128,145
1.123,4095,162,157
1.129,1964,148,4095
1.135,155,159,4095
1.141,4095,4095,160
1.147,115,4095,4095
1.153,95,4095,163
1.159,4095,4095,281
1.166,324,297,4095
1.171,217,149,167
1.177,4095,143,150
1.184,161,149,4095
1.19,165,165,4095
1.197,4095,4095,192
1.203,98,4095,4095
1.21,91,4095,4095
1.217,4095,4095,133
1.223,4095,4095,4095
1.23,190,145,163
1.236,4095,139,181
1.243,158,167,4095
1.25,157,99,4095
1.256,4095,4095,187
1.262,122,4095,4095
1.269,108,4095,1507
1.275,4095,4095,229
1.282,339,4095,4095
1.288,4095,143,171
1.294,4095,155,153
1.3,1590,158,4095
1.306,160,150,4095
1.312,4095,4095,160
1.319,109,4095,4095
1.325,96,4095,137
1.332,4095,4095,290
1.338,361,319,4095
1.344,208,166,82
1.35,4095,144,162
1.357,169,144,4095
1.363,155,162,4095
1.369,4095,4095,171
1.375,143,4095,4095
1.382,110,4095,360
1.388,4095,4095,135
1.395,4095,4095,4095
1.402,187,155,147
1.408,4095,144,166
1.415,154,151,4095
1.422,176,146,4095
1.429,4095,4095,112
1.435,121,4095,4095
1.442,107,4095,153
1.448,4095,4095,187
1.454,325,4095,4095
1.461,4095,154,150
1.467,4095,146,95
1.474,4095,150,4095
1.479,157,154,4095
1.486,4095,4095,163
1.493,110,4095,4095
1.499,97,4095,144
1.505,4095,4095,208
1.512,4095,4095,4095
1.518,214,137,156
1.524,4095,149,155
1.53,178,144,4095
1.536,155,155,4095
1.542,4095,4095,178
1.549,111,4095,4095
1.556,137,4095,128
1.562,4095,4095,318
1.568,4095,4095,4095
1.574,205,137,164
1.582,4095,150,173
1.588,149,165,4095
1.595,169,303,4095
1.601,4095,4095,176
1.608,127,4095,4095
1.613,93,4095,144
1.62,4095,4095,293
1.627,338,4095,4095
1.633,4095,151,149
1.639,4095,141,258
1.645,221,153,4095
1.651,144,161,4095
1.658,4095,4095,182
1.665,99,4095,4095
1.67,102,4095,148
1.676,4095,4095,300
1.683,351,331,4095
1.688,229,160,112
1.694,4095,139,170
1.701,171,148,4095
1.707,148,165,4095
1.713,4095,4095,176
1.719,110,4095,4095
1.725,96,4095,1702
1.731,4095,4095,202
1.737,4095,4095,4095
1.743,185,197,208
1.749,4095,174,145
1.755,149,144,4095
1.761,303,464,4095
1.768,4095,4095,182
1.775,128,4095,4095
1.781,97,4095,154
1.787,4095,4095,193
1.793,317,4095,4095
1.799,4095,146,147
1.805,4095,140,117
1.811,4095,144,4095
1.818,158,156,4095
1.825,4095,4095,173
1.831,107,4095,4095
1.837,109,4095,144
1.843,4095,4095,279
1.849,355,336,4095
1.857,162,149,135
1.863,4095,136,167
1.869,174,164,4095
1.876,151,147,4095
1.883,4095,4095,179
1.889,107,4095,4095
1.895,137,4095,147
1.902,4095,4095,278
1.909,4095,4095,4095
1.915,195,152,138
1.921,4095,141,146
1.927,160,145,4095
1.934,162,368,4095
1.94,4095,4095,183
1.946,128,4095,4095
1.952,107,4095,71
1.958,4095,4095,257
1.965,322,4095,4095
1.971,4095,135,167
1.977,4095,144,144
1.983,1044,154,4095
1.989,160,141,4095
1.996,4095,4095,174
2.002,112,4095,4095
2.008,114,4095,144
2.015,4095,4095,237
2.021,358,342,4095
2.027,4095,144,146
2.033,4095,128,170
2.041,170,152,4095
2.048,157,150,4095
2.054,4095,4095,171
2.06,99,4095,4095
2.066,125,4095,130
2.072,4095,4095,262
2.078,417,4095,4095
2.084,188,142,144
2.09,4095,144,161
2.096,165,148,4095
2.102,176,303,4095
2.108,4095,4095,199
2.115,106,4095,4095
2.121,98,4095,159
2.126,4095,4095,268
2.132,325,4095,4095
2.138,4095,142,144
2.143,4095,148,169
2.149,605,170,4095
2.155,163,165,4095
2.161,4095,4095,167
2.168,112,4095,4095
2.174,111,4095,147
2.179,4095,4095,272
2.185,343,336,4095
2.191,206,146,145
2.197,4095,152,167
2.203,176,156,4095
2.21,149,161,4095
2.216,4095,4095,189
2.222,103,4095,4095
2.228,129,4095,213
2.235,4095,4095,291
2.242,4095,4095,4095
2.248,187,145,156
2.254,4095,147,176
2.26,156,161,4095
2.267,171,344,4095
2.273,4095,4095,176
2.279,127,4095,4095
2.285,104,4095,125
2.291,4095,4095,279
2.297,329,4095,4095
2.303,4095,144,147
2.31,4095,143,158
2.316,169,116,4095
2.321,155,162,4095
2.327,4095,4095,173
2.333,110,4095,4095
2.34,112,4095,210
2.346,4095,4095,261
2.351,362,355,4095
2.357,4095,137,144
2.362,4095,144,163
2.368,171,192,4095
2.375,154,128,4095
2.381,4095,4095,171
2.387,110,4095,4095
2.393,133,4095,148
2.398,4095,4095,208
2.404,374,368,4095
2.41,193,145,139
2.416,4095,149,148
2.422,156,117,4095
2.428,149,202,4095
2.435,4095,4095,144
2.44,113,4095,4095
2.446,101,4095,142
2.452,4095,4095,302
2.457,322,4095,4095
2.463,4095,145,143
2.469,4095,139,174
2.475,162,139,4095
2.481,159,151,4095
2.488,4095,4095,251
2.493,105,4095,4095
2.499,97,4095,130
2.504,4095,4095,272
2.51,368,359,4095
2.516,208,151,144
2.522,4095,152,173
2.528,176,161,4095
2.534,149,138,4095
2.54,4095,4095,183
2.546,109,4095,4095
2.551,133,4095,242
2.557,4095,4095,258
2.563,4095,4095,4095
2.569,189,145,146
2.574,4095,145,159
2.58,153,173,4095
2.585,239,383,4095
2.591,4095,4095,180
2.598,119,4095,4095
2.604,106,4095,154
2.609,4095,4095,294
2.615,336,4095,4095
2.62,4095,150,133
2.625,4095,136,253
2.631,174,175,4095
2.637,158,150,4095
2.643,4095,4095,167
2.648,109,4095,4095
2.653,97,4095,99
2.659,4095,4095,126
2.665,381,358,4095
2.67,215,182,176
2.676,4095,138,165
2.682,368,162,4095
2.687,151,144,4095
2.693,4095,4095,205
2.698,102,4095,4095
2.704,111,4095,209
2.709,4095,4095,144
2.715,4095,4095,4095
2.72,199,154,155
2.726,4095,147,155
2.731,160,180,4095
2.737,160,240,4095
2.742,4095,4095,177
2.748,144,4095,4095
2.754,112,4095,157
2.759,4095,4095,218
2.765,350,4095,4095
2.77,4095,134,154
2.776,4095,125,144
2.781,2266,154,4095
2.787,128,149,4095
2.793,4095,4095,145
2.799,113,4095,4095
2.804,107,4095,144
2.81,4095,4095,243
2.815,363,333,4095
2.82,4095,172,141
2.826,4095,147,169
2.832,170,151,4095
2.837,162,152,4095
2.843,4095,4095,168
2.848,96,4095,4095
2.854,126,4095,147
2.859,4095,4095,282
2.865,1772,597,4095
2.871,190,112,127
2.876,4095,139,151
2.882,161,160,4095
2.888,154,199,4095
2.895,4095,4095,191
2.901,122,4095,4095
2.907,105,4095,144
2.913,4095,4095,291
2.92,359,4095,4095
2.926,4095,149,87
2.932,4095,151,164
2.939,1531,162,4095
2.945,162,147,4095
2.953,4095,4095,179
2.962,115,4095,4095
2.968,97,4095,147
2.975,4095,4095,276
2.982,358,304,4095
2.989,208,234,162
2.995,4095,160,173
3.003,183,155,4095
3.009,160,164,4095
3.016,4095,4095,192
3.024,99,4095,4095
3.03,107,4095,992
3.037,4095,4095,126
3.045,4095,4095,4095
3.054,208,169,119
3.062,4095,142,163
3.07,165,153,4095
3.076,152,218,4095
3.083,4095,4095,161
3.089,133,4095,4095
3.095,103,4095,144
3.101,4095,4095,192
3.108,367,4095,4095
3.114,4095,144,125
3.12,4095,159,150
3.126,2933,161,4095
3.133,157,146,4095
3.139,4095,4095,171
3.145,118,4095,4095
3.151,97,4095,147
3.157,4095,4095,266
3.164,358,334,4095
3.17,210,163,163
3.176,4095,147,170
3.183,257,163,4095
3.189,167,150,4095
3.195,4095,4095,195
3.201,100,4095,4095
3.209,112,4095,146
3.216,4095,4095,202
3.223,4095,4095,4095
3.229,192,142,144
3.236,4095,144,175
3.242,157,151,4095
3.249,149,132,4095
3.255,4095,4095,193
3.261,114,4095,4095
3.268,151,4095,133
3.273,4095,4095,303
3.28,363,4095,4095
3.286,4095,148,147
3.293,4095,149,176
3.299,157,179,4095
3.305,164,147,4095
3.311,4095,4095,189
3.317,119,4095,4095
3.323,105,4095,151
3.329,4095,4095,275
3.335,355,320,4095
3.34,4095,157,153
3.346,4095,143,167
3.352,202,151,4095
3.357,167,157,4095
3.363,4095,4095,79
3.369,96,4095,4095
3.375,113,4095,142
3.381,4095,4095,208
3.387,4095,4095,4095
3.393,192,144,158
3.398,4095,144,171
3.403,162,165,4095
3.41,150,225,4095
3.415,4095,4095,189
3.421,117,4095,4095
3.426,107,4095,144
3.432,4095,4095,297
3.438,344,4095,4095
3.444,4095,146,167
3.45,4095,137,170
3.456,152,132,4095
3.461,172,147,4095
3.468,4095,4095,177
3.474,121,4095,4095
3.479,109,4095,138
3.485,4095,4095,304
3.491,358,322,4095
3.496,4095,144,151
3.502,4095,141,169
3.507,592,153,4095
3.513,170,150,4095
3.519,4095,4095,163
3.525,104,4095,4095
3.531,128,4095,144
3.537,4095,4095,254
3.542,402,4095,4095
3.548,207,138,154
3.553,4095,151,182
3.559,176,146,4095
3.565,148,178,4095
3.57,4095,4095,182
3.576,128,4095,4095
3.581,98,4095,229
3.587,4095,4095,282
3.592,367,4095,4095
3.598,4095,144,144
3.604,4095,178,155
3.609,157,112,4095
3.615,153,159,4095
3.62,4095,4095,192
3.626,127,4095,4095
3.632,102,4095,128
3.637,4095,4095,273
3.643,362,310,4095
3.649,4095,142,159
3.654,4095,135,160
3.66,494,167,4095
3.666,167,144,4095
3.673,4095,4095,184
3.678,99,4095,4095
3.684,115,4095,123
3.689,4095,4095,261
3.695,4095,4095,4095
3.7,200,133,173
3.706,4095,151,138
3.712,173,128,4095
3.718,145,267,4095
3.724,4095,4095,189
3.729,128,4095,4095
3.734,97,4095,97
3.74,4095,4095,176
3.746,354,4095,4095
3.752,4095,126,144
3.758,4095,128,184
3.763,3838,196,4095
3.769,150,183,4095
3.774,4095,4095,179
3.78,119,4095,4095
3.786,100,4095,83
3.792,4095,4095,279
3.798,365,371,4095
3.803,205,167,152
3.809,4095,151,168
3.814,711,149,4095
3.82,171,188,4095
3.826,4095,4095,197
3.832,101,4095,4095
3.837,95,4095,1117
3.843,4095,4095,176
3.848,4095,4095,4095
3.854,215,134,159
3.86,4095,158,157
3.865,170,240,4095
3.871,145,221,4095
3.877,4095,4095,165
3.882,126,4095,4095
3.888,100,4095,141
3.894,4095,4095,255
3.9,368,4095,4095
3.906,4095,134,156
3.911,4095,137,173
3.918,156,107,4095
3.923,155,157,4095
3.929,4095,4095,256
3.935,115,4095,4095
3.94,101,4095,80
3.946,4095,4095,240
3.951,360,349,4095
3.957,227,176,151
3.962,4095,137,164
3.968,1159,166,4095
3.974,166,151,4095
3.979,4095,4095,194
3.985,99,4095,4095
3.99,102,4095,768
3.996,4095,4095,160
4.001,4095,4095,4095
4.007,209,145,166
4.012,4095,145,149
4.018,170,163,4095
4.024,146,194,4095
4.029,4095,4095,213
4.034,138,4095,4095
4.04,98,4095,998
4.046,4095,4095,108
4.051,373,4095,4095
4.057,4095,103,145
4.063,4095,161,159
4.069,4095,144,4095
4.075,166,144,4095
4.081,4095,4095,153
4.087,125,4095,4095
4.093,102,4095,141
4.099,4095,4095,269
4.105,357,341,4095
4.111,4095,145,160
4.117,4095,150,224
4.124,622,219,4095
4.129,171,213,4095
4.135,4095,4095,191
4.14,98,4095,4095
4.146,117,4095,144
4.151,4095,4095,204
4.157,4095,4095,4095
4.162,182,155,138
4.168,4095,144,143
4.173,172,161,4095
4.179,145,172,4095
4.184,4095,4095,187
4.19,118,4095,4095
4.196,109,4095,157
4.201,4095,4095,288
4.207,382,4095,4095
4.212,4095,150,144
4.219,4095,122,124
4.225,154,150,4095
4.231,169,144,4095
4.237,4095,4095,161
4.243,134,4095,4095
4.248,95,4095,144
4.254,4095,4095,275
4.26,359,405,4095
4.266,4095,148,155
4.271,4095,158,160
4.277,2034,147,4095
4.283,169,155,4095
4.288,4095,4095,171
4.294,105,4095,4095
4.299,112,4095,142
4.305,4095,4095,238
4.311,406,588,4095
4.316,187,150,154
4.322,4095,112,161
4.328,173,178,4095
4.334,145,112,4095
4.34,4095,4095,192
4.346,115,4095,4095
4.352,128,4095,143
4.359,4095,4095,304
4.364,368,4095,4095
4.37,3423,112,151
4.375,4095,114,157
4.381,151,131,4095
4.387,165,146,4095
4.393,4095,4095,165
4.399,119,4095,4095
4.404,93,4095,141
4.41,4095,4095,258
4.416,362,355,4095
4.423,4095,149,160
4.429,4095,158,148
4.435,1040,148,4095
4.441,169,147,4095
4.446,4095,4095,129
4.452,105,4095,4095
4.458,99,4095,137
4.465,4095,4095,261
4.47,733,4095,4095
4.476,192,151,144
4.482,4095,139,159
4.487,173,128,4095
4.493,158,144,4095
4.499,4095,4095,185
4.504,114,4095,4095
4.51,59,4095,194
4.516,4095,4095,224
4.521,358,4095,4095
4.527,2939,178,177
4.533,4095,93,165
4.54,4095,144,4095
4.545,159,150,4095
4.551,4095,4095,165
4.557,112,4095,4095
4.562,122,4095,129
4.568,4095,4095,292
4.573,374,377,4095
4.579,4095,134,147
4.585,4095,153,158
4.591,1574,148,4095
4.596,150,157,4095
4.602,4095,4095,169
4.608,99,4095,4095
4.613,122,4095,144
4.619,4095,4095,284
4.626,4095,4095,4095
4.632,185,145,67
4.637,4095,140,180
4.643,148,145,4095
4.648,175,163,4095
4.654,4095,4095,176
4.66,123,4095,4095
4.666,92,4095,138
4.671,4095,4095,198
4.677,384,4095,4095
4.683,3201,208,179
4.69,4095,123,150
4.696,187,170,4095
4.702,152,159,4095
4.708,4095,4095,176
4.713,115,4095,4095
4.719,80,4095,136
4.724,4095,4095,195
4.73,383,335,4095
4.736,239,175,161
4.743,4095,149,153
4.749,2553,118,4095
4.754,144,153,4095
4.759,4095,4095,181
4.765,103,4095,4095
4.77,114,4095,163
4.777,4095,4095,208
4.783,4095,4095,4095
4.788,207,144,154
4.794,4095,146,148
4.8,162,149,4095
4.806,166,153,4095
4.812,4095,4095,176
4.818,109,4095,4095
4.824,33,4095,240
4.83,4095,4095,211
4.836,389,4095,4095
4.843,2672,207,144
4.849,4095,143,153
4.855,177,157,4095
4.861,155,167,4095
4.867,4095,4095,196
4.873,70,4095,4095
4.879,101,4095,191
4.886,4095,4095,206
4.892,316,362,4095
4.898,252,171,153
4.903,4095,145,156
4.909,2304,148,4095
4.915,189,165,4095
4.92,4095,4095,160
4.927,112,4095,4095
4.933,126,4095,144
4.938,4095,4095,202
4.944,4095,4095,4095
4.949,175,141,161
4.955,4095,147,161
4.961,230,158,4095
4.967,153,146,4095
4.973,4095,4095,89
4.978,130,4095,4095
4.984,82,4095,446
4.99,4095,4095,123
4.995,415,4095,4095
5.001,2705,145,150
5.007,4095,156,159
5.013,4095,154,4095
5.019,147,162,4095
5.024,4095,4095,181
5.03,77,4095,4095
5.036,172,4095,153
5.042,4095,4095,186
5.048,336,358,4095
5.053,247,173,162
5.059,4095,149,171
5.065,3330,153,4095
5.071,173,170,4095
5.076,4095,4095,162
5.083,149,4095,4095
5.089,119,4095,132
5.095,4095,4095,181
5.101,4095,4095,4095
5.107,203,141,157
5.112,4095,145,155
5.118,221,165,4095
5.124,155,149,4095
5.129,4095,4095,106
5.135,121,4095,4095
5.141,97,4095,163
5.146,4095,4095,203
5.152,384,4095,4095
5.158,1903,144,144
5.165,4095,160,150
5.171,152,149,4095
5.176,156,230,4095
5.182,4095,4095,204
5.187,121,4095,4095
5.193,82,4095,345
5.2,4095,4095,180
5.206,338,365,4095
5.212,255,183,162
5.217,4095,149,151
5.223,2188,148,4095
5.228,177,158,4095
5.234,4095,4095,176
5.24,66,4095,4095
5.245,100,4095,2753
5.251,4095,4095,163
5.257,4095,4095,4095
5.262,208,138,151
5.268,4095,150,162
5.275,174,160,4095
5.28,99,151,4095
5.286,4095,4095,186
5.291,188,4095,4095
5.298,109,4095,380
5.304,4095,4095,181
5.31,336,4095,4095
5.316,1501,151,145
5.322,4095,155,172
5.327,150,155,4095
5.333,155,189,4095
5.339,4095,4095,177
5.346,112,4095,4095
5.352,112,4095,147
5.359,4095,4095,221
5.365,346,371,4095
5.371,4095,151,164
5.377,4095,129,142
5.385,2660,150,4095
5.391,136,230,4095
5.398,4095,4095,163
5.404,103,4095,4095
5.41,107,4095,138
5.415,4095,4095,277
5.421,483,4095,4095
5.427,202,93,162
5.433,4095,144,161
5.438,126,153,4095
5.444,159,157,4095
5.45,4095,4095,183
5.456,130,4095,4095
5.463,96,4095,144
5.469,4095,4095,161
5.474,402,4095,4095
5.48,2735,131,152
5.485,4095,144,172
5.491,144,159,4095
5.497,153,186,4095
5.503,4095,4095,187
5.509,99,4095,4095
5.515,117,4095,153
5.52,4095,4095,147
5.526,369,373,4095
5.532,235,189,153
5.538,4095,153,145
5.543,3447,146,4095
5.549,158,151,4095
5.555,4095,4095,187
5.561,86,4095,4095
5.568,103,4095,139
5.574,4095,4095,101
5.579,4095,4095,4095
5.585,220,145,134
5.591,4095,149,166
5.596,165,144,4095
5.602,155,160,4095
5.608,4095,4095,208
5.614,128,4095,4095
5.62,107,4095,148
5.626,4095,4095,160
5.631,390,4095,4095
5.637,4095,145,131
5.642,4095,144,177
5.648,159,158,4095
5.654,159,172,4095
5.66,4095,4095,176
5.666,119,4095,4095
5.671,128,4095,136
5.677,4095,4095,282
5.683,345,385,4095
5.688,4095,131,165
5.694,4095,140,166
5.701,4095,162,4095
5.707,161,167,4095
5.712,4095,4095,187
5.718,67,4095,4095
5.724,133,4095,256
5.729,4095,4095,240
5.735,4095,4095,4095
5.741,194,143,145
5.746,4095,150,181
5.752,178,144,4095
5.758,153,169,4095
5.763,4095,4095,160
5.769,93,4095,4095
5.775,98,4095,137
5.782,4095,4095,144
5.787,415,4095,4095
5.793,4095,144,155
5.799,4095,139,167
5.804,144,175,4095
5.81,155,171,4095
5.816,4095,4095,209
5.823,111,4095,4095
5.829,119,4095,155
5.834,4095,4095,247
5.84,305,382,4095
5.846,4095,130,144
5.852,4095,142,157
5.858,4095,159,4095
5.865,157,163,4095
5.87,4095,4095,183
5.876,80,4095,4095
5.882,131,4095,150
5.888,4095,4095,238
5.894,4095,4095,4095
5.901,190,149,260
5.907,4095,142,174
5.913,179,119,4095
5.918,240,161,4095
5.925,4095,4095,176
5.931,91,4095,4095
5.937,98,4095,135
5.942,4095,4095,145
5.948,391,4095,4095
5.953,4095,144,146
5.959,4095,150,166
5.966,173,174,4095
5.971,232,165,4095
5.977,4095,4095,202
5.983,83,4095,4095
5.99,81,4095,603
5.996,4095,4095,97
6.002,4095,4095,4095
6.007,240,176,145
6.013,4095,151,171
6.018,3056,145,4095
6.024,110,154,4095
6.029,4095,4095,192
6.035,133,4095,4095
6.041,115,4095,157
6.048,4095,4095,64
6.053,4095,4095,4095
6.059,219,152,91
6.064,4095,134,175
6.07,121,150,4095
6.075,236,159,4095
6.082,4095,4095,205
6.087,116,4095,4095
6.093,117,4095,450
6.098,4095,4095,112
6.104,482,4095,4095
6.109,3153,152,157
6.115,4095,145,173
6.121,4095,157,4095
6.127,92,163,4095
6.133,4095,4095,190
6.138,111,4095,4095
6.143,55,4095,273
6.149,4095,4095,77
6.155,4095,4095,4095
6.161,247,167,158
6.168,4095,154,157
6.174,4095,158,4095
6.179,176,154,4095
6.185,4095,4095,176
6.19,128,4095,4095
6.195,123,4095,149
6.201,4095,4095,113
6.207,4095,4095,4095
6.212,207,144,151
6.218,4095,144,159
6.223,114,159,4095
6.229,240,165,4095
6.234,4095,4095,176
6.24,131,4095,4095
6.246,127,4095,145
6.251,4095,4095,189
6.257,410,4095,4095
6.262,2400,142,149
6.267,4095,150,149
6.273,106,167,4095
6.279,173,161,4095
6.285,4095,4095,170
6.29,175,4095,4095
6.295,128,4095,132
6.301,4095,4095,279
6.307,368,2741,4095
6.312,4095,134,142
6.318,4095,157,166
6.324,1826,170,4095
6.329,165,147,4095
6.334,4095,4095,178
6.34,114,4095,4095
6.345,129,4095,147
6.351,4095,4095,229
6.357,320,273,4095
6.362,215,117,143
6.367,4095,165,162
6.373,149,147,4095
6.378,131,155,4095
6.384,4095,4095,170
6.39,95,4095,4095
6.395,105,4095,146
6.401,4095,4095,320
6.406,419,4095,4095
6.411,1869,158,131
6.418,4095,138,181
6.423,171,166,4095
6.429,530,557,4095
6.435,4095,4095,176
6.44,118,4095,4095
6.446,92,4095,146
6.451,4095,4095,297
6.457,341,1120,4095
6.462,4095,145,165
6.468,4095,155,190
6.474,739,150,4095
6.48,154,147,4095
6.485,4095,4095,170
6.491,110,4095,4095
6.496,1,4096,4095
6.502,4095,165,160
6.508,157,148,4095
6.513,175,144,4095
6.518,4095,4095,165
6.524,114,4095,4095
6.529,105,4095,110
6.535,4095,4095,208
6.54,347,330,4095
6.546,4095,118,135
6.552,4095,144,178
6.557,176,158,4095
6.563,173,161,4095
6.568,4095,4095,170
6.574,99,4095,4095
6.579,134,4095,129
6.585,4095,4095,270
6.591,415,2234,4095
6.596,196,144,166
6.602,4095,146,154
6.607,165,149,4095
6.613,221,412,4095
6.618,4095,4095,158
6.624,123,4095,4095
6.629,99,4095,138
6.635,4095,4095,283
6.641,321,4095,4095
6.646,4095,144,138
6.651,4095,140,161
6.657,162,159,4095
6.663,149,164,4095
6.668,4095,4095,176
6.674,101,4095,4095
6.679,112,4095,118
6.685,4095,4095,272
6.691,347,347,4095
6.696,4095,146,162
6.702,4095,154,208
6.708,229,161,4095
6.713,158,158,4095
6.719,4095,4095,240
6.724,109,4095,4095
6.73,132,4095,143
6.735,4095,4095,285
6.741,427,4095,4095
6.746,199,144,155
6.752,4095,144,162
6.758,167,158,4095
6.763,165,336,4095
6.768,4095,4095,160
6.774,68,4095,4095
6.78,97,4095,144
6.785,4095,4095,216
6.791,328,4095,4095
6.796,4095,134,151
6.802,4095,149,194
6.807,1643,149,4095
6.813,157,142,4095
6.818,4095,4095,176
6.824,112,4095,4095
6.829,110,4095,112
6.835,4095,4095,274
6.841,354,323,4095
6.846,4095,150,155
6.851,4095,159,147
6.857,161,149,4095
6.863,160,159,4095
6.868,4095,4095,183
6.874,109,4095,4095
6.879,134,4095,140
6.885,4095,4095,267
6.891,471,1382,4095
6.897,194,146,135
6.902,4095,144,166
6.908,175,160,4095
6.913,208,370,4095
6.919,4095,4095,153
6.924,85,4095,4095
6.93,112,4095,147
6.936,4095,4095,290
6.941,341,4095,4095
6.947,4095,86,173
6.953,4095,165,150
6.959,1499,147,4095
6.964,166,155,4095
6.97,4095,4095,161
6.976,113,4095,4095
6.982,103,4095,130
6.987,4095,4095,283
6.993,352,330,4095
6.998,4095,144,158
7.004,4095,176,159
7.009,206,146,4095
7.015,171,169,4095
7.021,4095,4095,175
7.026,99,4095,4095
7.032,138,4095,125
7.037,4095,4095,294
7.043,4095,4095,4095
7.048,192,128,142
7.054,4095,153,160
7.06,175,165,4095
7.065,160,336,4095
7.07,4095,4095,121
7.076,107,4095,4095
7.081,97,4095,247
7.087,4095,4095,276
7.093,357,4095,4095
7.098,4095,154,151
7.104,4095,165,174
7.109,158,153,4095
7.115,167,212,4095
7.12,4095,4095,178
7.125,112,4095,4095
7.131,107,4095,96
7.137,4095,4095,186
7.142,350,342,4095
7.148,173,151,155
7.153,4095,144,163
7.159,637,160,4095
7.164,167,172,4095
7.17,4095,4095,198
7.176,97,4095,4095
7.181,105,4095,193
7.186,4095,4095,97
7.192,4095,4095,4095
7.197,206,175,167
7.203,4095,138,157
7.209,170,170,4095
7.215,159,154,4095
7.22,4095,4095,177
7.226,122,4095,4095
7.231,102,4095,720
7.237,4095,4095,85
7.242,375,4095,4095
7.248,4095,139,144
7.253,4095,144,163
7.259,4095,144,4095
7.265,151,151,4095
7.27,4095,4095,193
7.275,116,4095,4095
7.281,100,4095,143
7.287,4095,4095,158
7.292,365,337,4095
7.298,234,192,144
7.303,4095,144,189
7.309,330,162,4095
7.315,167,171,4095
7.32,4095,4095,209
7.326,143,4095,4095
7.332,81,4095,3803
7.337,4095,4095,106
7.343,4095,4095,4095
7.348,208,175,150
7.354,4095,141,176
7.359,171,163,4095
7.365,150,221,4095
7.37,4095,4095,190
7.376,122,4095,4095
7.381,98,4095,1008
7.387,4095,4095,150
7.392,377,4095,4095
7.398,4095,138,150
7.403,4095,155,171
7.409,3606,172,4095
7.414,153,165,4095
7.42,4095,4095,184
7.425,112,4095,4095
7.431,103,4095,144
7.436,4095,4095,289
7.443,368,345,4095
7.448,4095,130,133
7.454,4095,144,174
7.459,564,161,4095
7.465,160,150,4095
7.47,4095,4095,171
7.476,102,4095,4095
7.482,144,4095,134
7.487,4095,4095,305
7.493,445,4095,4095
7.498,189,146,135
7.503,4095,107,159
7.509,161,154,4095
7.514,161,185,4095
7.52,4095,4095,157
7.526,124,4095,4095
7.531,106,4095,146
7.537,4095,4095,269
7.542,371,4095,4095
7.548,4095,135,159
7.553,4095,158,138
7.559,166,144,4095
7.565,175,149,4095
7.57,4095,4095,165
7.576,114,4095,4095
7.581,95,4095,97
7.586,4095,4095,278
7.592,369,336,4095
7.598,229,157,170
7.603,4095,144,144
7.609,181,144,4095
7.614,161,163,4095
7.62,4095,4095,223
7.625,99,4095,4095
7.631,95,4095,4095
7.636,4095,4095,98
7.643,4095,4095,4095
7.648,194,186,176
7.654,4095,135,151
7.659,159,159,4095
7.664,167,201,4095
7.67,4095,4095,208
7.676,126,4095,4095
7.682,110,4095,2422
7.687,4095,4095,166
7.693,366,4095,4095
7.699,4095,144,141
7.705,4095,156,171
7.71,1924,144,4095
7.717,153,156,4095
7.722,4095,4095,171
7.728,112,4095,4095
7.734,96,4095,127
7.74,4095,4095,283
7.745,368,403,4095
7.751,228,162,155
7.757,4095,140,158
7.762,226,152,4095
7.768,162,171,4095
7.774,4095,4095,176
7.779,107,4095,4095
7.785,99,4095,912
7.791,4095,4095,107
7.796,4095,4095,4095
7.802,208,167,145
7.807,4095,153,154
7.813,165,162,4095
7.818,154,190,4095
7.824,4095,4095,187
7.83,127,4095,4095
7.835,100,4095,141
7.841,4095,4095,147
7.846,375,4095,4095
7.852,4095,136,147
7.857,4095,160,158
7.863,4095,145,4095
7.869,158,163,4095
7.874,4095,4095,176
7.88,117,4095,4095
7.885,101,4095,132
7.891,4095,4095,269
7.898,353,362,4095
7.904,4095,144,147
7.91,4095,148,176
7.917,334,161,4095
7.922,169,164,4095
7.928,4095,4095,177
7.934,96,4095,4095
7.94,114,4095,141
7.946,4095,4095,234
7.952,4095,4095,4095
7.959,144,145,4095
7.964,128,129,4095
7.97,128,125,4095
7.975,123,144,4095
7.981,176,141,4095
7.987,139,160,4095
7.992,151,131,4095
7.998,191,164,4095
8.003,130,129,4095
8.009,130,128,4095
8.014,85,139,4095
8.019,59,135,4095
8.025,108,125,4095
8.031,228,129,4095
8.035,148,154,4095
8.041,148,154,4095
8.045,163,150,4095
8.05,144,131,4095
8.056,140,132,4095
8.061,137,130,4095
8.067,139,144,4095
8.072,123,90,4095
8.077,272,205,4095
8.082,122,167,4095
8.086,161,162,4095
8.091,145,130,4095
8.096,105,129,4095
8.101,134,142,4095
8.106,105,134,4095
8.11,165,149,4095
8.115,143,128,4095
8.12,108,157,4095
8.124,212,146,4095
8.128,193,201,4095
8.133,174,142,4095
8.138,146,142,4095
8.142,123,133,4095
8.147,146,139,4095
8.152,126,129,4095
8.156,171,135,4095
8.16,173,247,4095
8.164,174,165,4095
8.169,156,144,4095
8.173,141,160,4095
8.177,153,153,4095
8.181,126,137,4095
8.185,133,131,4095
8.189,144,139,4095
8.193,159,112,4095
8.197,100,144,4095
8.201,287,202,4095
8.206,145,146,4095
8.209,222,172,4095
8.214,166,167,4095
8.217,155,133,4095
8.222,138,134,4095
8.226,167,144,4095
8.23,141,117,4095
8.234,119,173,4095
8.238,121,161,4095
8.242,243,233,4095
8.247,186,174,4095
8.251,251,166,4095
8.254,139,125,4095
8.257,136,145,4095
8.261,133,129,4095
8.264,174,126,4095
8.267,138,146,4095
8.27,151,163,4095
8.274,170,146,4095
8.277,165,175,4095
8.281,139,118,4095
8.284,61,121,4095
8.287,137,143,4095
8.29,136,139,4095
8.293,128,144,4095
8.296,110,119,4095
8.299,262,267,4095
8.302,176,137,4095
8.305,155,166,4095
8.308,141,144,4095
8.311,130,132,4095
8.315,133,97,4095
8.318,96,146,4095
8.322,136,137,4095
8.325,139,124,4095
8.327,178,144,4095
8.331,131,214,4095
8.334,193,213,4095
8.337,123,158,4095
8.34,144,146,4095
8.342,139,122,4095
8.344,145,192,4095
8.348,151,140,4095
8.35,256,193,4095
8.354,151,170,4095
8.357,155,146,4095
8.359,164,172,4095
8.361,113,171,4095
8.365,145,150,4095
8.367,143,143,4095
8.369,134,129,4095
8.373,139,133,4095
8.375,144,123,4095
8.378,109,150,4095
8.381,81,137,4095
8.383,191,185,4095
8.386,160,165,4095
8.388,176,154,4095
8.391,166,142,4095
8.394,213,138,4095
8.396,128,127,4095
8.399,118,138,4095
8.401,80,131,4095
8.404,158,151,4095
8.407,151,181,4095
8.409,171,169,4095
8.412,173,148,4095
8.414,144,128,4095
8.416,144,144,4095
8.419,143,128,4095
8.421,126,113,4095
8.424,80,138,4095
8.426,384,198,4095
8.43,144,151,4095
8.432,181,158,4095
8.435,97,147,4095
8.438,141,135,4095
8.44,145,133,4095
8.443,143,150,4095
8.446,124,121,4095
8.449,121,114,4095
8.451,261,234,4095
8.453,165,141,4095
8.456,163,208,4095
8.459,161,144,4095
8.461,107,128,4095
8.465,130,138,4095
8.467,134,134,4095
8.47,146,151,4095
8.473,117,243,4095
8.476,128,137,4095
8.478,203,148,4095
8.481,187,200,4095
8.483,169,166,4095
8.486,165,133,4095
8.49,144,140,4095
8.492,142,135,4095
8.494,132,123,4095
8.498,263,213,4095
8.5,143,134,4095
8.503,144,189,4095
8.507,127,159,4095
8.509,157,165,4095
8.513,145,143,4095
8.516,135,144,4095
8.518,132,141,4095
8.522,141,137,4095
8.524,118,117,4095
8.527,155,163,4095
8.53,155,151,4095
8.532,179,178,4095
8.535,235,173,4095
8.538,159,158,4095
8.541,133,132,4095
8.543,148,144,4095
8.547,132,129,4095
8.55,87,114,4095
8.552,115,91,4095
8.555,242,214,4095
8.558,156,208,4095
8.56,179,175,4095
8.564,145,153,4095
8.566,142,124,4095
8.569,149,144,4095
8.572,139,143,4095
8.575,123,114,4095
8.578,138,148,4095
8.581,237,161,4095
8.584,148,147,4095
8.586,192,170,4095
8.59,148,143,4095
8.592,134,131,4095
8.595,129,144,4095
8.599,145,129,4095
8.601,125,137,4095
8.604,121,128,4095
8.607,195,182,4095
8.61,154,162,4095
8.613,135,196,4095
8.616,157,152,4095
8.618,144,137,4095
8.621,132,142,4095
8.624,133,134,4095
8.626,144,150,4095
8.629,131,119,4095
8.632,152,145,4095
8.635,165,163,4095
8.638,206,198,4095
8.641,176,160,4095
8.643,139,144,4095
8.646,144,128,4095
8.649,133,141,4095
8.652,144,136,4095
8.655,243,203,4095
8.657,144,156,4095
8.659,156,178,4095
8.663,213,176,4095
8.666,162,173,4095
8.668,146,144,4095
8.671,128,139,4095
8.674,144,137,4095
8.677,145,198,4095
8.68,132,128,4095
8.682,145,145,4095
8.685,192,230,4095
8.688,176,162,4095
8.69,163,163,4095
8.693,164,208,4095
8.696,128,158,4095
8.699,145,129,4095
8.701,129,140,4095
8.704,118,119,4095
8.707,114,138,4095
8.709,162,131,4095
8.713,162,246,4095
8.716,191,170,4095
8.718,150,144,4095
8.721,126,139,4095
8.725,144,128,4095
8.727,145,142,4095
8.73,119,127,4095
8.733,160,151,4095
8.735,144,147,4095
8.738,144,158,4095
8.74,181,160,4095
8.743,144,150,4095
8.746,128,124,4095
8.749,146,150,4095
8.751,129,135,4095
8.755,133,138,4095
8.758,222,129,4095
8.76,141,171,4095
8.764,144,141,4095
8.766,165,165,4095
8.769,112,150,4095
8.771,157,143,4095
8.774,143,132,4095
8.776,134,141,4095
8.78,145,128,4095
8.782,112,117,4095
8.785,144,242,4095
8.788,143,146,4095
8.79,209,187,4095
8.793,151,153,4095
8.796,131,134,4095
8.8,132,129,4095
8.802,144,145,4095
8.805,128,125,4095
8.808,225,128,4095
8.81,149,189,4095
8.814,160,162,4095
8.816,184,183,4095
8.819,175,145,4095
8.822,151,128,4095
8.824,133,137,4095
8.827,137,129,4095
8.829,137,135,4095
8.832,130,162,4095
8.835,175,131,4095
8.838,214,176,4095
8.84,176,172,4095
8.843,162,145,4095
8.846,138,129,4095
8.849,14,176,155
8.851,166,162,161
8.855,228,289,459
8.858,4095,247,240
8.86,206,170,183
8.863,3408,150,155
8.865,240,240,240
8.868,182,189,176
8.872,4095,167,160
8.875,4095,177,160
8.877,175,166,209
8.882,161,149,131
8.885,4095,420,277
8.888,262,201,211
8.891,189,182,190
8.893,4095,192,368
8.896,192,211,208
8.899,1927,197,205
8.902,4095,155,153
8.905,166,169,191
8.909,169,162,174
8.913,173,232,176
8.916,4095,241,289
8.92,170,188,170
8.923,4095,156,230
8.926,219,193,154
8.93,199,333,158
8.933,4095,190,176
8.936,198,172,145
8.94,151,162,201
8.943,165,163,128
8.948,4095,399,264
8.951,210,209,190
8.956,4095,145,170
8.959,4095,400,294
8.964,199,209,269
8.967,4095,183,203
8.972,4095,161,202
8.976,161,164,182
8.98,173,227,173
8.985,4095,146,256
8.989,327,274,246
8.992,176,182,177
8.997,4095,211,234
9.0,228,220,242
9.005,234,165,210
9.009,4095,167,160
9.013,185,177,176
9.017,164,172,140
9.022,165,145,335
9.025,4095,257,320
9.03,179,171,262
9.034,192,133,172
9.039,430,274,259
9.042,325,204,304
9.047,4095,177,180
9.051,4095,157,176
9.055,184,163,209
9.059,166,183,171
9.064,4095,294,259
9.068,322,226,179
9.072,183,170,187
9.076,4095,203,159
9.08,242,241,231
9.084,233,186,176
9.088,4095,153,174
9.092,177,165,204
9.097,161,108,168
9.101,166,173,370
9.105,4095,244,398
9.109,179,181,206
9.114,4095,148,163
9.118,253,256,306
9.123,238,208,217
9.128,4095,150,171
9.133,227,121,146
9.137,176,231,173
9.142,151,165,186
9.147,4095,271,272
9.152,208,189,214
9.157,206,185,128
9.161,4095,192,422
9.167,197,209,4095
9.173,4095,147,161
9.177,4095,141,166
9.182,176,171,158
9.187,171,163,178
9.192,445,304,298
9.197,4095,360,218
9.202,181,177,176
9.208,4095,135,176
9.212,263,208,4095
9.217,180,176,192
9.222,4095,126,111
9.227,164,184,182
9.232,162,162,192
9.237,114,144,4095
9.242,4095,234,190
9.248,179,189,170
9.253,4095,148,176
9.259,4095,258,4095
9.264,199,203,191
9.269,4095,133,148
9.276,1008,169,156
9.281,176,128,363
9.287,128,142,4095
9.292,4095,242,259
9.298,220,176,220
9.303,180,175,192
9.309,4095,240,4095
9.314,203,208,2396
9.32,4095,155,144
9.326,4095,130,255
9.331,175,160,149
9.336,149,153,4095
9.342,2267,225,282
9.348,4095,209,240
9.353,166,182,203
9.359,4095,295,4095
9.365,208,209,4095
9.37,4095,134,162
9.375,4095,139,128
9.381,181,167,207
9.386,127,154,4095
9.391,4095,181,4095
9.398,256,217,203
9.403,189,160,144
9.408,4095,192,291
9.414,230,219,4095
9.419,182,159,179
9.425,4095,113,114
9.431,176,155,208
9.436,128,137,4095
9.442,126,106,4095
9.448,4095,225,208
9.453,163,173,171
9.459,300,185,352
9.464,486,357,4095
9.469,163,154,267
9.474,4095,157,151
9.479,4095,119,203
9.484,144,128,4095
9.49,133,124,4095
9.494,4095,252,214
9.5,203,225,235
9.506,209,185,4095
9.512,4095,187,4095
9.517,182,146,4095
9.523,4095,88,141
9.528,4095,109,4095
9.533,144,136,4095
9.539,120,144,4095
9.544,4095,163,4095
9.551,333,249,242
9.556,213,197,4095
9.561,4095,196,4095
9.567,188,190,4095
9.572,169,138,137
9.578,4095,112,4095
9.584,141,128,4095
9.59,135,159,4095
9.595,4095,201,4095
9.601,240,224,1151
9.606,150,188,4095
9.611,4095,240,4095
9.617,199,193,4095
9.623,368,112,2943
9.628,4095,107,4095
9.634,147,144,4095
9.64,150,144,4095
9.645,528,148,4095
9.65,3876,252,3748
9.656,170,168,4095
9.661,4095,203,4095
9.668,195,199,4095
9.673,4095,122,4095
9.678,3573,115,4095
9.684,135,141,4095
9.689,163,115,4095
9.694,4095,240,4095
9.7,272,222,4095
9.706,188,190,4095
9.711,4095,193,4095
9.717,180,176,4095
9.723,144,121,4095
9.728,4095,113,4095
9.734,144,129,4095
9.74,128,134,4095
9.745,4095,229,4095
9.751,221,188,4095
9.756,176,181,4095
9.761,4095,227,4095
9.767,205,187,4095
9.772,195,99,4095
9.777,4095,117,4095
9.783,144,144,4095
9.789,128,138,4095
9.795,496,147,4095
9.8,3216,227,4095
9.806,186,179,4095
9.811,4095,231,4095
9.817,192,188,4095
9.822,4095,95,4095
9.828,4095,128,4095
9.834,144,146,4095
9.839,138,121,4095
9.844,4095,163,4095
9.851,277,212,4095
9.856,185,176,4095
9.862,4095,199,4095
9.867,178,162,4095
9.872,139,117,4095
9.878,4095,93,4095
9.884,142,151,4095
9.889,128,81,4095
9.895,4095,185,4095
9.9,4095,276,4095
9.906,180,176,4095
9.911,4095,215,4095
9.917,208,189,4095
9.922,781,143,4095
9.928,4095,117,4095
9.934,142,144,4095
9.94,144,144,4095
9.945,479,176,4095
9.951,4095,304,4095
9.956,179,182,4095
9.961,4095,210,4095
9.967,189,192,4095
9.973,4095,113,4095
9.978,4095,112,4095
9.984,129,144,4095
9.989,164,128,4095
9.994,4095,192,4095
10.001,308,202,4095
10.006,186,183,4095
10.011,4095,160,4095
10.017,187,170,4095
10.023,150,112,4095
10.028,4095,117,4095
10.034,144,117,4095
10.039,122,186,4095
10.045,4095,231,4095
10.05,265,208,4095
10.056,177,192,4095
10.062,4095,247,4095
10.067,286,199,4095
10.073,1255,112,4095
10.078,4095,98,4095
10.083,144,147,4095
10.089,144,111,4095
10.095,528,135,4095
10.1,4095,230,4095
10.106,198,176,4095
10.111,4095,247,4095
10.117,183,195,4095
10.123,4095,97,4095
10.128,4095,112,4095
10.134,144,140,4095
10.14,122,118,4095
10.145,4095,160,4095
10.151,276,212,4095
10.157,189,186,4095
10.162,4095,203,4095
10.167,180,172,4095
10.173,147,113,4095
10.179,4095,111,4095
10.184,146,131,4095
10.19,138,128,4095
10.195,4095,219,4095
10.202,218,202,4095
10.208,190,169,4095
10.214,4095,241,4095
10.221,4095,4095,4095
10.226,4095,4095,4095
10.232,4095,4095,4095
10.238,4095,4095,4095
10.243,4095,4095,4095
10.249,308,4095,4095
10.256,4095,4095,4095
10.261,4095,4095,4095
10.267,4095,4095,4095
10.273,4095,4095,4095
10.278,176,4095,4095
10.283,4095,4095,4095
10.289,4095,4095,4095
10.295,169,4095,4095
10.3,4095,4095,4095
10.306,4095,4095,4095
10.312,4095,4095,4095
10.317,4095,4095,4095
10.322,4095,4095,4095
10.328,4095,4095,4095
10.334,4095,4095,4095
10.339,4095,4095,4095
10.345,4095,4095,4095
10.35,4095,4095,4095
10.354,4095,4095,4095
10.359,4095,4095,4095
10.364,4095,4095,4095
10.369,4095,4095,4095
10.375,4095,4095,4095
10.379,4095,4095,4095
10.384,301,4095,4095
10.389,4095,4095,4095
10.393,4095,4095,4095
10.398,4095,4095,4095
10.403,4095,4095,4095
10.408,214,4095,4095
10.412,4095,4095,4095
10.417,4095,4095,4095
10.422,144,4095,4095
10.427,4095,4095,4095
10.431,4095,4095,4095
10.435,4095,4095,4095
10.44,4095,4095,4095
10.445,4095,4095,4095
10.45,4095,4095,4095
10.454,4095,4095,4095
10.458,4095,4095,4095
10.462,4095,4095,4095
10.467,4095,4095,4095
10.471,4095,4095,4095
10.475,4095,4095,4095
10.481,4095,4095,4095
10.485,4095,4095,4095
10.489,4095,4095,4095
10.493,4095,4095,4095
10.497,240,4095,4095
10.501,4095,4095,4095
10.505,4095,4095,4095
10.509,4095,4095,4095
10.514,4095,4095,4095
10.518,208,4095,4095
10.522,4095,4095,4095
10.526,4095,4095,4095
10.531,131,4095,4095
10.534,4095,4095,4095
10.539,4095,4095,4095
10.542,4095,4095,4095
10.547,4095,4095,4095
10.551,4095,4095,4095
10.555,276,4095,4095
10.559,4095,4095,4095
10.563,4095,4095,4095
10.567,179,4095,4095
10.571,4095,4095,4095
10.574,4095,4095,4095
10.578,4095,4095,4095
10.582,4095,4095,4095
10.585,239,4095,4095
10.589,4095,4095,4095
10.593,4095,4095,4095
10.597,4095,4095,4095
10.6,4095,4095,4095
10.603,4095,4095,4095
10.607,4095,4095,4095
10.61,4095,4095,4095
10.614,4095,4095,4095
10.617,4095,4095,4095
10.62,4095,4095,4095
10.623,4095,4095,4095
10.626,392,4095,4095
10.63,4095,4095,4095
10.633,4095,4095,4095
10.637,4095,4095,4095
10.64,4095,4095,4095
10.643,171,4095,4095
10.647,4095,4095,4095
10.65,4095,4095,4095
10.653,144,4095,4095
10.657,4095,4095,4095
10.66,4095,4095,4095
10.664,4095,4095,4095
10.667,4095,4095,4095
10.67,301,4095,4095
10.674,4095,4095,4095
10.677,4095,4095,4095
10.68,4095,4095,4095
10.683,4095,4095,4095
10.687,4095,4095,4095
10.69,4095,4095,4095
10.693,4095,4095,4095
10.697,4095,4095,4095
10.7,4095,4095,4095
10.705,4095,4095,4095
10.708,4095,4095,4095
10.711,429,4095,4095
10.715,4095,4095,4095
10.718,4095,4095,4095
10.721,4095,4095,4095
10.725,4095,4095,4095
10.728,180,4095,4095
10.731,4095,4095,4095
10.734,4095,4095,4095
10.739,163,4095,4095
10.742,4095,4095,4095
10.745,4095,4095,4095
10.748,4095,4095,4095
10.752,4095,4095,4095
10.755,4095,4095,4095
10.758,4095,4095,4095
10.762,4095,4095,4095
10.766,4095,4095,4095
10.769,324,4095,4095
10.772,4095,4095,4095
10.776,4095,4095,4095
10.78,4095,4095,4095
10.784,4095,4095,4095
10.787,240,4095,4095
10.79,4095,4095,4095
10.793,4095,4095,4095
10.797,4095,4095,4095
10.8,4095,4095,4095
10.803,4095,4095,4095
10.807,4095,4095,4095
10.81,4095,4095,4095
10.814,4095,4095,4095
10.817,4095,4095,4095
10.821,4095,4095,4095
10.825,4095,4095,4095
10.828,4095,4095,4095
10.832,4095,4095,4095
10.835,4095,4095,4095
10.838,4095,4095,4095
10.842,4095,4095,4095
10.845,155,4095,4095
10.849,4095,4095,4095
10.852,4095,4095,4095
10.855,230,4095,4095
10.858,4095,4095,4095
10.862,4095,4095,4095
10.865,4095,4095,4095
10.868,4095,4095,4095
10.871,239,4095,4095
10.875,4095,4095,4095
10.878,4095,4095,4095
10.882,4095,4095,4095
10.885,4095,4095,298
10.889,4095,4095,4095
10.892,4095,4095,4095
10.895,4095,4095,4095
10.899,4095,4095,320
10.902,4095,4095,48
10.905,4095,4095,121
10.908,4095,4095,4095
10.911,176,4095,4095
10.915,4095,4095,208
10.917,4095,4095,174
10.922,4095,4095,112
10.925,4095,4095,215
10.928,4095,4095,299
10.932,4095,4095,108
10.934,4095,4095,115
10.938,4095,4095,186
10.941,4095,4095,253
10.944,4095,4095,123
10.948,4095,4095,100
10.951,4095,4095,115
10.955,4095,4095,241
10.959,4095,4095,240
10.962,4095,4095,112
10.965,4095,4095,109
10.968,4095,4095,157
10.971,4095,4095,281
10.974,4095,4095,114
10.977,4095,4095,78
10.98,4095,4095,59
10.982,4095,4095,275
10.985,389,4095,233
10.988,4095,4095,111
10.991,4095,4095,123
10.994,4095,4095,164
10.997,4095,4095,256
11.0,4095,4095,108
11.003,4095,4095,92
11.007,4095,4095,102
11.009,4095,4095,261
11.013,297,4095,171
11.016,4095,4095,111
11.019,4095,4095,144
11.022,4095,4095,199
11.025,4095,4095,241
11.027,4095,4095,112
11.03,4095,4095,91
11.034,4095,4095,80
11.037,4095,4095,534
11.04,240,4095,155
11.042,4095,4095,112
11.045,4095,4095,272
11.048,4095,4095,254
11.051,4095,4095,220
11.053,4095,4095,110
11.056,4095,4095,94
11.059,4095,4095,48
11.062,4095,4095,496
11.065,222,4095,227
11.067,4095,4095,134
11.071,4095,4095,174
11.074,219,4095,277
11.077,4095,4095,210
11.08,4095,4095,97
11.083,4095,4095,26
11.085,4095,4095,128
11.088,4095,4095,264
11.091,4095,4095,165
11.094,4095,4095,124
11.097,4095,4095,131
11.1,331,4095,257
11.102,4095,4095,186
11.105,4095,4095,101
11.108,4095,4095,87
11.111,4095,4095,107
11.115,4095,4095,281
11.118,4095,4095,173
11.121,4095,4095,177
11.124,4095,4095,146
11.127,4095,4095,154
11.13,4095,4095,149
11.133,4095,4095,97
11.135,4095,4095,106
11.138,4095,4095,117
11.141,4095,4095,274
11.144,4095,4095,144
11.148,4095,4095,139
11.151,4095,4095,155
11.153,4095,4095,339
11.156,4095,4095,112
11.159,4095,4095,1284096
11.161,4095,194,129
11.164,4095,4095,320
11.167,192,1547,144
11.17,4095,4095,127
11.173,4095,170,149
11.176,379,361,332
11.18,337,189,80
11.183,4095,218,127
11.187,4095,4095,113
11.191,4095,4095,129
11.194,4095,4095,272
11.197,263,4095,147
11.2,4095,4095,140
11.203,4095,4095,176
11.207,1108,160,385
11.21,4095,192,171
11.214,4095,4095,143
11.218,4095,4095,101
11.223,4095,4095,129
11.227,4095,4095,240
11.231,215,4095,112
11.234,4095,4095,176
11.239,4095,4095,129
11.242,310,355,296
11.245,4095,4095,128
11.248,4095,4095,112
11.251,4095,4095,104
11.255,4095,4095,228
11.259,4095,4095,237
11.262,213,4095,101
11.265,4095,4095,162
11.268,4095,4095,129
11.271,346,326,290
11.274,4095,4095,112
11.277,4095,4095,143
11.282,4095,4095,122
11.285,4095,4095,144
11.289,4095,4095,185
11.292,1299,4095,86
11.297,4095,4095,144
11.301,4095,4095,127
11.305,310,277,300
11.308,4095,4095,146
11.311,4095,4095,115
11.315,4095,4095,112
11.318,4095,4095,142
11.322,4095,4095,250
11.325,4095,4095,107
11.329,4095,4095,146
11.333,4095,4095,159
11.336,273,240,290
11.341,4095,4095,144
11.344,4095,4095,130
11.349,4095,4095,109
11.352,4095,4095,2496
11.356,4095,4095,209
11.359,4095,4095,118
11.364,4095,4095,114
11.368,4095,4095,384
11.372,245,4095,142
11.375,4095,4095,128
11.379,4095,4095,126
11.383,4095,4095,132
11.386,4095,4095,174
11.391,4095,4095,187
11.394,4095,4095,123
11.397,4095,4095,172
11.4,4095,302,339
11.405,1907,4095,93
11.409,4095,4095,146
11.412,4095,4095,115
11.416,4095,4095,212
11.419,4095,4095,194
11.422,219,4095,149
11.425,4095,4095,144
11.428,4095,4095,145
11.432,4095,365,290
11.435,4095,4095,102
11.439,4095,4095,135
11.443,4095,4095,98
11.447,4095,4095,97
11.45,4095,4095,193
11.453,213,4095,117
11.457,4095,4095,112
11.46,4095,4095,148
11.464,747,368,307
11.467,4095,4095,119
11.472,4095,4095,167
11.475,4095,4095,93
11.481,4095,4095,117
11.484,4095,4095,177
11.488,197,4095,153
11.491,4095,4095,132
11.494,4095,4095,140
11.499,310,273,292
11.502,4095,4095,99
11.506,4095,4095,163
11.509,4095,4095,108
11.514,4095,4095,101
11.518,4095,4095,171
11.522,190,4095,102
11.526,4095,4095,108
11.531,4095,4095,132
11.534,238,4095,197
11.538,4095,4095,91
11.542,4095,4095,138
11.545,151,4095,158
11.549,4095,4095,100
11.553,4095,4095,187
11.558,255,4095,92
11.561,4095,4095,151
11.566,4095,4095,222
11.569,276,2306,167
11.575,4095,4095,76
11.578,4095,4095,119
11.583,156,4095,70
11.587,4095,4095,90
11.591,4095,4095,171
11.595,182,4095,129
11.6,4095,4095,109
11.604,4095,4095,167
11.608,274,4095,219
11.611,4095,4095,99
11.615,4095,4095,158
11.619,142,4095,192
11.624,4095,4095,118
11.628,4095,4095,170
11.633,177,4095,145
11.637,4095,4095,129
11.641,4095,2065,199
11.645,212,4095,197
11.649,4095,4095,80
11.653,4095,4095,144
11.657,148,4095,253
11.661,4095,4095,4095
11.667,4095,4095,282
11.672,177,4095,147
11.676,4095,4095,144
11.68,238,243,160
11.684,195,4095,199
11.689,4095,4095,176
11.693,4095,4095,140
11.697,149,4095,149
11.701,4095,4095,4095
11.706,4095,4095,186
11.71,1827,4095,93
11.715,4095,4095,146
11.719,170,1351,146
11.724,4095,4095,179
11.728,4095,4095,144
11.733,4095,4095,149
11.737,156,4095,147
11.742,4095,4095,4095
11.748,4095,4095,171
11.752,4095,4095,96
11.757,4095,4095,151
11.761,137,4095,4095
11.766,4095,4095,153
11.77,4095,4095,109
11.776,4095,4095,139
11.781,2010,4095,166
11.786,4095,4095,174
11.792,4095,4095,189
11.797,4095,4095,110
11.802,4095,4095,138
11.806,128,4095,187
11.811,4095,4095,114
11.816,4095,4095,105
11.822,4095,4095,145
11.827,4095,4095,109
11.831,4095,4095,144
11.836,4095,4095,112
11.841,4095,4095,133
11.846,4095,4095,121
11.85,4095,4095,156
11.855,4095,4095,93
11.86,4095,4095,113
11.864,4095,4095,128
11.868,4095,4095,4095
11.873,4095,4095,125
11.877,4095,4095,117
11.882,4095,4095,80
11.886,4095,4095,97
11.891,4095,4095,147
11.897,4095,4095,78
11.901,4095,4095,112
11.906,4095,4095,123
11.91,4095,4095,4095
11.914,4095,4095,155
11.918,4095,4095,94
11.923,4095,4095,123
11.927,4095,4095,4095
11.932,4095,4095,147
11.936,4095,4095,101
11.941,4095,4095,112
11.946,4095,4095,121
11.95,4095,4095,4095
11.955,4095,4095,139
11.959,4095,4095,119
11.964,4095,4095,130
11.969,4095,4095,4095
11.973,4095,4095,132
11.977,4095,4095,111
11.981,4095,4095,143
11.985,4095,4095,4095
11.99,4095,4095,141
11.993,4095,4095,48
11.997,4095,4095,137
12.001,4095,4095,4095
12.006,4095,4095,128
12.009,4095,4095,93
12.014,4095,4095,91
12.017,4095,4095,45
12.022,4095,4095,4095
12.026,4095,4095,139
12.03,4095,4095,128
12.034,4095,4095,123
12.039,4095,4095,4095
12.043,4095,4095,139
12.047,4095,4095,64
12.051,4095,4095,97
12.055,4095,4095,127
12.058,4095,4095,4095
12.062,4095,4095,113
12.065,4095,4095,93
12.068,4095,4095,1070
12.072,2075,4095,4095
12.075,4095,4095,151
12.078,4095,4095,102
12.082,4095,4095,128
12.085,4095,4095,4095
12.088,4095,4095,168
12.091,4095,4095,130
12.094,4095,4095,112
12.098,4095,4095,4095
12.101,4095,4095,165
12.105,4095,4095,94
12.108,4095,4095,123
12.111,4095,4095,110
12.115,4095,4095,4095
12.118,4095,4095,126
12.122,4095,4095,139
12.125,4095,4095,109
12.127,3569,4095,4095
12.13,4095,4095,162
12.133,4095,4095,105
12.135,4095,4095,95
12.138,4095,4095,85
12.14,4095,4095,4095
12.143,4095,4095,159
12.146,1339,4095,80
12.149,4095,4095,4095
12.152,110,4095,4095
12.155,4095,4095,160
12.157,4095,4095,130
12.16,4095,4095,117
12.163,4095,4095,4095
12.165,4095,4095,131
12.167,4095,4095,133
12.17,4095,4095,121
12.172,2042,4095,4095
12.175,2580,4095,3392
12.177,4095,4095,87
12.18,4095,4095,128
12.182,4095,4095,115
12.184,4095,4095,4095
12.188,4095,4095,144
12.191,159,4095,176
12.193,4095,4095,133
12.196,112,4095,4095
12.199,304,4095,207
12.201,711,4095,150
12.204,2391,4095,141
12.207,4095,4095,119
12.21,2193,4095,4095
12.213,2174,4095,131
12.216,171,4095,154
12.218,4095,4095,98
12.222,106,4095,4095
12.225,190,4095,177
12.228,174,4095,150
12.231,176,4095,129
12.234,2481,4095,133
12.236,114,4095,4095
12.239,193,4095,158
12.242,164,4095,128
12.245,4095,4095,127
12.248,114,4095,4095
12.251,146,4095,180
12.255,166,4095,155
12.258,155,4095,138
12.261,816,4095,155
12.265,147,4095,4095
12.268,170,4095,162
12.271,145,4095,128
12.274,4095,4095,176
12.277,113,4095,4095
12.28,189,4095,186
12.283,142,4095,106
12.286,166,4095,146
12.29,205,4095,117
12.293,75,4095,4095
12.296,159,4095,137
12.3,175,4095,142
12.303,4095,4095,144
12.306,106,4095,4095
12.309,176,4095,193
12.313,176,4095,133
12.316,133,4095,165
12.319,160,4095,157
12.322,109,4095,4095
12.325,177,4095,191
12.328,180,4095,153
12.332,4095,4095,128
12.335,124,4095,4095
12.339,187,4095,208
12.342,226,4095,115
12.345,140,4095,128
12.348,150,4095,137
12.351,146,4095,4095
12.355,171,4095,127
12.358,157,4095,150
12.361,4095,4095,133
12.365,119,4095,4095
12.368,143,4095,194
12.372,145,4095,143
12.376,147,4095,173
12.38,145,4095,144
12.383,107,4095,4095
12.386,159,4095,187
12.39,162,4095,144
12.393,3039,4095,176
12.397,119,4095,4095
12.4,185,4095,193
12.404,169,4095,141
12.407,135,4095,144
12.411,151,4095,129
12.415,107,4095,4095
12.418,160,4095,165
12.422,141,4095,137
12.425,4095,4095,2518
12.428,144,157,4095
12.432,133,1779,4095
12.434,107,4095,4095
12.439,260,4095,4095
12.442,97,4095,4095
12.445,826,4095,4095
12.45,125,4095,4095
12.453,153,4095,4095
12.458,4095,4095,4095
12.461,144,139,4095
12.465,143,139,4095
12.468,2848,4095,4095
12.472,4095,4095,4095
12.475,117,4095,4095
12.478,4095,4095,4095
12.482,198,4095,4095
12.485,4095,4095,4095
12.489,4095,4095,4095
12.492,242,4095,4095
12.497,2243,4095,4095
12.501,4095,4095,4095
12.505,4095,4095,4095
12.509,4095,4095,4095
12.513,4095,4095,4095
12.517,122,4095,4095
12.522,4095,124,4095
12.526,162,144,4095
12.53,183,4095,4095
12.533,4095,4095,4095
12.537,4095,4095,4095
12.541,142,4095,4095
12.544,4095,4095,4095
12.549,4095,126,4095
12.552,4095,1229,4095
12.557,4095,122,4095
12.561,461,163,4095
12.565,4095,4095,4095
12.57,89,4095,4095
12.574,113,4095,4095
12.577,153,4095,4095
12.581,173,172,4095
12.585,146,138,4095
12.589,144,141,4095
12.592,133,145,4095
12.597,89,4095,4095
12.601,80,4095,4095
12.606,99,4095,4095
12.609,80,4095,4095
12.613,115,4095,4095
12.617,112,4095,4095
12.62,144,156,4095
12.625,117,129,4095
12.629,100,4095,4095
12.633,86,4095,4095
12.637,85,4095,4095
12.641,84,4095,4095
12.644,94,4095,4095
12.649,107,4095,4095
12.653,103,4095,4095
12.657,126,113,4095
12.66,131,123,4095
12.664,114,2422,4095
12.668,91,4095,4095
12.672,97,4095,4095
12.676,77,4095,4095
12.68,74,4095,4095
12.684,48,4095,4095
12.687,100,4095,4095
12.691,113,138,4095
12.695,128,135,4095
12.7,94,4095,4095
12.703,83,4095,4095
12.707,83,4095,4095
12.71,82,4095,4095
12.715,84,4095,4095
12.718,83,4095,4095
12.722,95,4095,4095
12.726,112,367,4095
12.73,101,122,4095
12.734,128,1986,4095
12.739,77,4095,4095
12.742,89,4095,4095
12.747,80,4095,4095
12.751,94,4095,4095
12.755,83,4095,4095
12.758,86,4095,4095
12.762,95,4095,4095
12.765,121,139,4095
12.769,90,4095,4095
12.773,83,4095,4095
12.777,92,4095,4095
12.781,80,4095,4095
12.784,86,4095,4095
12.788,91,4095,4095
12.792,90,4095,4095
12.797,71,4095,4095
12.8,105,2721,4095
12.803,99,4095,4095
12.808,81,4095,4095
12.811,85,4095,4095
12.815,83,4095,4095
12.818,76,4095,4095
12.823,90,4095,4095
12.826,85,4095,4095
12.83,93,4095,4095
12.834,81,4095,4095
12.839,81,4095,4095
12.842,81,4095,4095
12.847,96,4095,4095
12.851,91,4095,4095
12.855,78,4095,4095
12.859,81,4095,4095
12.864,102,4095,4095
12.867,89,4095,4095
12.872,86,4095,4095
12.875,98,4095,4095
12.878,99,4095,4095
12.882,95,4095,4095
12.884,86,4095,4095
12.888,74,4095,4095
12.89,84,4095,4095
12.893,99,4095,4095
12.897,82,4095,4095
12.9,98,4095,4095
12.902,87,4095,4095
12.905,102,4095,4095
12.908,95,4095,4095
12.911,87,4095,4095
12.915,79,4095,4095
12.917,81,4095,4095
12.92,95,4095,4095
12.923,97,4095,4095
12.925,82,4095,4095
12.928,80,4095,4095
12.932,108,4095,4095
12.934,80,4095,4095
12.938,85,4095,4095
12.941,80,4095,4095
12.943,83,4095,4095
12.946,109,4095,4095
12.949,87,4095,4095
12.952,82,4095,4095
12.955,96,4095,4095
12.957,82,4095,4095
12.959,80,4095,4095
12.963,102,4095,4095
12.965,81,4095,4095
12.967,80,4095,4095
12.972,93,4095,4095
12.974,137,4095,4095
12.977,112,4095,4095
12.979,91,4095,4095
12.982,80,4095,4095
12.985,94,4095,4095
12.988,95,4095,4095
12.991,92,4095,4095
12.994,93,4095,4095
12.997,93,4095,4095
13.001,91,4095,4095
13.003,96,4095,4095
13.007,89,4095,4095
13.009,84,4095,4095
13.013,96,4095,4095
13.016,80,4095,4095
13.019,84,4095,4095
13.023,91,4095,4095
13.026,99,4095,4095
13.028,86,4095,4095
13.031,158,4095,4095
13.033,86,4095,4095
13.036,78,4095,4095
13.04,86,4095,4095
13.043,80,4095,4095
13.046,80,4095,4095
13.049,80,4095,4095
13.051,80,4095,4095
13.054,87,4095,4095
13.057,87,4095,4095
13.059,85,4095,4095
13.061,92,4095,4095
13.064,102,4095,4095
13.066,83,4095,4095
13.069,80,4095,4095
13.071,78,4095,4095
13.074,91,4095,4095
13.077,89,4095,4095
13.081,85,4095,4095
13.084,80,4095,4095
13.086,90,4095,4095
13.09,94,4095,4095
13.092,90,4095,4095
13.095,96,4095,4095
13.097,85,4095,4095
13.1,89,4095,4095
13.102,90,4095,4095
13.107,84,4095,4095
13.109,91,4095,4095
13.111,95,4095,4095
13.114,85,4095,4095
13.116,85,4095,4095
13.119,91,4095,4095
13.121,91,4095,4095
13.124,85,4095,4095
13.126,87,4095,4095
13.13,98,4095,4095
13.132,90,4095,4095
13.135,87,4095,4095
13.138,80,4095,4095
13.14,99,4095,4095
13.143,80,4095,4095
13.146,83,4095,4095
13.149,82,4095,4095
13.151,103,4095,4095
13.153,91,4095,4095
13.156,83,4095,4095
13.159,90,4095,4095
13.161,89,4095,4095
13.165,89,4095,4095
13.167,74,4095,4095
13.17,80,4095,4095
13.172,70,4095,4095
13.175,73,4095,4095
13.177,81,4095,4095
13.18,92,4095,4095
13.182,86,4095,4095
13.184,83,4095,4095
13.186,131,4095,4095
13.189,81,4095,4095
13.192,86,4095,4095
13.195,75,4095,4095
13.198,81,4095,4095
13.201,91,4095,4095
13.203,149,4095,4095
13.206,88,4095,4095
13.209,86,4095,4095
13.211,89,4095,4095
13.214,91,4095,4095
13.216,95,4095,4095
13.218,80,4095,4095
13.221,86,4095,4095
13.224,86,4095,4095
13.226,80,4095,4095
13.23,80,4095,4095
13.233,97,4095,4095
13.235,82,4095,4095
13.238,87,4095,4095
13.241,93,4095,4095
13.243,87,4095,4095
13.246,81,4095,4095
13.249,77,4095,4095
13.251,97,4095,4095
13.255,91,4095,4095
13.257,85,4095,4095
13.259,76,4095,4095
13.263,25,4095,4095
13.266,141,4095,4095
13.269,75,4095,4095
13.272,77,4095,4095
13.274,90,4095,4095
13.276,95,4095,4095
13.28,87,4095,4095
13.282,80,4095,4095
13.284,91,4095,4095
13.288,82,4095,4095
13.29,77,4095,4095
13.293,77,4095,4095
13.295,64,4095,4095
13.298,93,4095,4095
13.3,80,4095,4095
13.303,85,4095,4095
13.306,97,4095,4095
13.309,91,4095,4095
13.311,68,4095,4095
13.314,86,4095,4095
13.316,79,4095,4095
13.319,85,4095,4095
13.322,82,4095,4095
13.325,99,4095,4095
13.327,95,4095,4095
13.33,72,4095,4095
13.332,85,4095,4095
13.335,92,4095,4095
13.338,86,4095,4095
13.341,94,4095,4095
13.344,80,4095,4095
13.348,83,4095,4095
13.351,92,4095,4095
13.353,80,4095,4095
13.356,80,4095,4095
13.358,93,4095,4095
13.361,87,4095,4095
13.365,81,4095,4095
13.368,85,4095,4095
13.371,85,4095,4095
13.373,86,4095,4095
13.376,84,4095,4095
13.38,94,4095,4095
13.382,91,4095,4095
13.384,90,4095,4095
13.388,86,4095,4095
13.39,79,4095,4095
13.392,89,4095,4095
13.395,77,4095,4095
13.397,80,4095,4095
13.399,87,4095,4095
13.401,80,4095,4095
13.405,86,4095,4095
13.408,93,4095,4095
13.41,97,4095,4095
13.413,86,4095,4095
13.416,87,4095,4095
13.419,85,4095,4095
13.421,82,4095,4095
13.424,86,4095,4095
13.426,80,4095,4095
13.428,85,4095,4095
13.431,81,4095,4095
13.434,91,4095,4095
13.436,81,4095,4095
13.439,83,4095,4095
13.442,91,4095,4095
13.444,91,4095,4095
13.446,90,4095,4095
13.449,63,4095,4095
13.451,99,4095,4095
13.455,86,4095,4095
13.457,79,4095,4095
13.459,76,4095,4095
13.463,106,4095,4095
13.466,80,4095,4095
13.468,73,4095,4095
13.471,80,4095,4095
13.474,84,4095,4095
13.476,94,4095,4095
13.478,79,4095,4095
13.481,95,4095,4095
13.483,96,4095,4095
13.485,80,4095,4095
13.488,80,4095,4095
13.491,80,4095,4095
13.493,86,4095,4095
13.496,79,4095,4095
13.498,90,4095,4095
13.501,79,4095,4095
13.503,82,4095,4095
13.506,79,4095,4095
13.509,111,4095,4095
13.511,80,4095,4095
13.514,83,4095,4095
13.517,94,4095,4095
13.519,89,4095,4095
13.521,80,4095,4095
13.524,82,4095,4095
13.526,85,4095,4095
13.53,91,4095,4095
13.533,80,4095,4095
13.535,81,4095,4095
13.538,28,4095,4095
13.54,102,4095,4095
13.542,80,4095,4095
13.544,84,4095,4095
13.548,84,4095,4095
13.55,85,4095,4095
13.552,96,4095,4095
13.555,77,4095,4095
13.557,86,4095,4095
13.559,81,4095,4095
13.563,99,4095,4095
13.566,91,4095,4095
13.568,155,4095,4095
13.571,87,4095,4095
13.574,79,4095,4095
13.576,80,4095,4095
13.578,98,4095,4095
13.581,87,4095,4095
13.583,82,4095,4095
13.585,83,4095,4095
13.588,102,4095,4095
13.591,81,4095,4095
13.593,81,4095,4095
13.596,83,4095,4095
13.598,78,4095,4095
13.601,83,4095,4095
13.605,83,4095,4095
13.607,74,4095,4095
13.61,81,4095,4095
13.613,93,4095,4095
13.616,90,4095,4095
13.618,103,4095,4095
13.621,93,4095,4095
13.624,95,4095,4095
13.626,84,4095,4095
13.63,80,4095,4095
13.632,90,4095,4095
13.634,80,4095,4095
13.638,93,4095,4095
13.64,77,4095,4095
13.642,90,4095,4095
13.646,89,4095,4095
13.648,91,4095,4095
13.651,91,4095,4095
13.653,94,4095,4095
13.655,86,4095,4095
13.658,81,4095,4095
13.66,90,4095,4095
13.663,80,4095,4095
13.666,87,4095,4095
13.668,80,4095,4095
13.671,81,4095,4095
13.674,87,4095,4095
13.677,137,4095,4095
13.68,99,4095,979
13.683,116,4095,189
13.685,114,4095,93
13.687,115,4095,143
13.69,116,4095,112
13.692,112,4095,131
13.694,116,4095,130
13.698,134,4095,121
13.7,117,4095,189
13.702,113,4095,96
13.705,125,4095,122
13.707,110,4095,112
13.71,127,4095,177
13.713,125,4095,131
13.715,112,4095,93
13.717,113,4095,186
13.719,106,4095,118
13.723,124,4095,127
13.725,126,4095,143
13.728,112,4095,115
13.731,111,4095,122
13.733,116,4095,140
13.735,115,4095,114
13.738,119,4095,161
13.74,123,4095,114
13.742,139,4095,128
13.744,137,4095,123
13.748,123,4095,141
13.75,125,4095,122
13.753,112,4095,112
13.756,128,4095,214
13.759,84,4095,1731
13.761,123,4095,147
13.764,82,4095,4095
13.767,95,4095,4095
13.769,94,4095,4095
13.773,88,4095,4095
13.776,75,4095,4095
13.78,86,4095,4095
13.782,87,4095,4095
13.785,80,4095,4095
13.788,80,4095,4095
13.79,81,4095,4095
13.792,91,4095,4095
13.795,83,4095,4095
13.798,86,4095,4095
13.8,97,4095,4095
13.803,87,4095,4095
13.806,112,4095,4095
13.808,58,4095,4095
13.811,94,4095,4095
13.814,90,4095,4095
13.817,81,4095,4095
13.819,80,4095,4095
13.822,80,4095,4095
13.825,94,4095,4095
13.827,82,4095,4095
13.83,71,4095,4095
13.833,105,4095,4095
13.836,96,4095,4095
13.84,83,4095,4095
13.842,129,4095,4095
13.844,97,4095,4095
13.848,82,4095,4095
13.85,74,4095,4095
13.853,80,4095,4095
13.856,77,4095,4095
13.858,80,4095,4095
13.861,80,4095,4095
13.865,95,4095,4095
13.867,83,4095,4095
13.869,86,4095,4095
13.873,103,4095,4095
13.875,80,4095,4095
13.877,84,4095,4095
13.88,81,4095,4095
13.882,91,4095,4095
13.884,85,4095,4095
13.886,80,4095,4095
13.89,90,4095,4095
13.893,91,4095,4095
13.896,87,4095,4095
13.899,87,4095,4095
13.901,99,4095,4095
13.905,85,4095,4095
13.907,93,4095,4095
13.91,97,4095,4095
13.913,80,4095,4095
13.915,101,4095,4095
13.917,85,4095,4095
13.919,80,4095,4095
13.923,83,4095,4095
13.925,79,4095,4095
13.927,78,4095,4095
13.931,82,4095,4095
13.933,91,4095,4095
13.936,101,4095,4095
13.94,102,2277,4095
13.942,117,3962,4095
13.944,93,4095,4095
13.948,90,4095,4095
13.95,74,4095,4095
13.953,88,4095,4095
13.956,105,4095,4095
13.958,87,4095,4095
13.961,114,507,4095
13.965,126,139,4095
13.967,123,258,4095
13.97,80,4095,4095
13.973,55,4095,4095
13.975,48,4095,4095
13.977,75,4095,4095
13.98,81,4095,4095
13.982,114,1456,4095
13.984,119,130,4095
13.986,128,113,4095
13.989,112,134,4095
13.991,160,769,4095
13.993,64,4095,4095
13.996,90,4095,4095
13.998,80,4095,4095
14.001,79,4095,4095
14.003,177,902,4095
14.006,118,128,4095
14.009,122,115,4095
14.011,112,121,4095
14.015,129,128,4095
14.017,93,2954,4095
14.02,93,4095,4095
14.023,131,4095,4095
14.025,85,4095,4095
14.028,127,130,4095
14.032,117,128,4095
14.034,128,118,4095
14.036,121,114,4095
14.039,112,129,4095
14.041,142,1270,4095
14.044,82,4095,4095
14.048,80,4095,4095
14.051,94,3286,4095
14.053,128,117,4095
14.056,112,128,4095
14.058,125,114,4095
14.06,113,117,4095
14.063,128,126,4095
14.065,120,133,4095
14.067,80,2096,4095
14.07,145,3393,4095
14.073,101,915,4095
14.075,126,129,4095
14.077,121,114,4095
14.08,112,121,4095
14.083,106,99,4095
14.085,98,139,4095
14.088,97,131,4095
14.091,125,131,4095
14.093,112,1361,4095
14.096,107,131,4095
14.099,126,117,4095
14.101,139,119,4095
14.105,113,128,4095
14.107,119,123,4095
14.109,121,64,4095
14.111,122,112,4095
14.114,93,121,4095
14.116,117,138,4095
14.119,112,136,4095
14.121,115,144,4095
14.124,118,128,4095
14.126,124,117,4095
14.128,177,124,4095
14.131,77,193,4095
14.133,171,79,4095
14.135,178,113,4095
14.138,120,132,4095
14.141,119,131,4095
14.144,131,135,4095
14.147,139,137,4095
14.149,113,116,4095
14.151,127,134,4095
14.155,122,128,4095
14.158,112,128,4095
14.16,128,115,4095
14.163,108,131,4095
14.165,121,132,4095
14.167,84,125,4095
14.17,112,109,4095
14.172,115,121,4095
14.174,112,112,4095
14.176,115,117,4095
14.18,183,131,4095
14.182,114,128,4095
14.185,123,118,4095
14.188,112,125,4095
14.191,122,128,4095
14.194,107,116,4095
14.198,112,112,4095
14.2,80,112,4095
14.203,121,125,4095
14.206,137,114,4095
14.208,117,130,4095
14.21,93,122,4095
14.213,116,128,4095
14.215,142,119,4095
14.217,128,135,4095
14.219,116,105,4095
14.223,108,124,4095
14.225,113,82,4095
14.228,118,119,4095
14.232,128,122,4095
14.234,128,163,4095
14.238,112,128,4095
14.241,115,121,4095
14.244,130,128,4095
14.246,113,127,4095
14.249,124,123,4095
14.251,107,112,4095
14.254,127,118,4095
14.256,122,128,4095
14.259,126,111,4095
14.261,108,135,4095
14.265,125,127,4095
14.268,99,121,4095
14.271,132,132,4095
14.274,54,112,4095
14.276,130,129,4095
14.279,112,113,4095
14.282,118,112,4095
14.284,112,130,4095
14.286,112,141,4095
14.289,112,128,4095
14.291,190,126,4095
14.293,97,113,4095
14.296,131,112,4095
14.298,123,118,4095
14.3,113,112,4095
14.303,124,128,4095
14.306,104,135,4095
14.308,124,126,4095
14.31,81,127,4095
14.313,112,138,4095
14.316,116,112,4095
14.318,131,140,4095
14.321,127,121,4095
14.324,117,127,4095
14.326,127,116,4095
14.33,114,128,4095
14.332,86,118,4095
14.334,186,129,4095
14.337,144,135,4095
14.34,124,150,4095
14.342,116,139,4095
14.345,118,83,4095
14.348,112,112,4095
14.351,131,120,4095
14.353,109,136,4095
14.356,131,117,4095
14.358,80,279,4095
14.36,109,138,4095
14.363,61,129,4095
14.365,112,118,4095
14.368,127,122,4095
14.371,128,117,4095
14.374,74,128,4095
14.377,126,117,4095
14.38,128,115,4095
14.382,112,197,4095
14.384,139,369,4095
14.388,117,115,4095
14.391,112,124,4095
14.393,118,138,4095
14.396,127,112,4095
14.399,78,117,4095
14.401,119,129,4095
14.404,134,112,4095
14.407,193,139,4095
14.409,116,128,4095
14.412,121,147,4095
14.415,94,119,4095
14.417,116,107,4095
14.419,140,134,4095
14.423,112,128,4095
14.425,128,117,4095
14.428,115,137,4095
14.431,87,128,4095
14.433,117,144,4095
14.435,121,128,4095
14.439,112,131,4095
14.442,123,123,4095
14.444,114,118,4095
14.446,118,112,4095
14.449,138,130,4095
14.452,130,114,4095
14.455,121,132,4095
14.458,117,135,4095
14.46,116,128,4095
14.463,128,135,4095
14.466,111,121,4095
14.468,125,118,4095
14.471,112,128,4095
14.473,113,112,4095
14.475,126,119,4095
14.478,113,137,4095
14.481,111,141,4095
14.483,122,112,4095
14.486,111,142,4095
14.49,123,128,4095
14.492,116,117,4095
14.494,113,112,4095
14.498,112,130,4095
14.5,115,112,4095
14.503,125,129,4095
14.506,113,135,4095
14.508,112,115,4095
14.51,121,117,4095
14.513,121,117,4095
14.516,116,126,4095
14.518,119,117,4095
14.521,110,125,4095
14.524,112,110,4095
14.526,117,126,4095
14.53,124,117,4095
14.532,113,124,4095
14.535,115,127,4095
14.538,112,116,4095
14.541,113,123,4095
14.543,112,143,4095
14.546,124,152,4095
14.549,109,143,4095
14.551,115,112,4095
14.555,129,127,4095
14.557,128,116,4095
14.56,110,115,4095
14.563,111,125,4095
14.565,112,141,4095
14.567,125,108,4095
14.57,113,118,4095
14.572,112,105,4095
14.574,112,177,4095
14.577,108,65,4095
14.579,127,117,4095
14.581,123,113,4095
14.584,116,103,4095
14.586,163,107,4095
14.589,105,124,4095
14.592,121,121,4095
14.594,115,115,4095
14.597,112,106,4095
14.599,141,128,4095
14.602,144,122,4095
14.604,126,133,4095
14.607,117,119,4095
14.609,110,129,4095
14.611,118,116,4095
14.615,123,130,4095
14.617,135,112,4095
14.619,119,128,4095
14.622,119,113,4095
14.624,114,110,4095
14.626,128,121,4095
14.63,112,129,4095
14.633,115,103,4095
14.635,110,122,4095
14.639,117,100,4095
14.641,128,112,4095
14.643,112,113,4095
14.647,107,128,4095
14.649,118,111,4095
14.651,111,128,4095
14.654,131,112,4095
14.657,113,106,4095
14.659,118,117,4095
14.662,121,111,4095
14.665,110,84,4095
14.667,121,99,4095
14.669,124,127,4095
14.674,160,111,4095
14.676,134,118,4095
14.679,126,118,4095
14.682,115,110,4095
14.684,128,127,4095
14.686,128,122,4095
14.689,123,107,4095
14.691,115,118,4095
14.693,116,111,4095
14.697,124,120,4095
14.699,120,117,4095
14.701,118,119,4095
14.704,113,106,4095
14.707,112,112,4095
14.709,125,118,4095
14.713,111,123,4095
14.716,102,112,4095
14.718,105,111,4095
14.721,112,192,4095
14.724,127,113,4095
14.726,119,123,4095
14.729,105,126,4095
14.732,112,112,4095
14.734,118,109,4095
14.736,128,123,4095
14.739,123,122,4095
14.741,116,117,4095
14.743,118,100,4095
14.747,112,121,4095
14.75,124,100,4095
14.752,117,85,4095
14.755,122,117,4095
14.757,116,103,4095
14.759,94,121,4095
14.763,112,111,4095
14.766,121,112,4095
14.768,110,114,4095
14.771,107,123,4095
14.774,125,112,4095
14.776,118,122,4095
14.778,123,113,4095
14.781,112,128,4095
14.783,118,109,4095
14.786,121,112,4095
14.79,124,117,4095
14.792,130,127,4095
14.794,121,99,4095
14.798,112,122,4095
14.8,130,114,4095
14.802,123,112,4095
14.806,116,131,4095
14.808,118,112,4095
14.81,111,112,4095
14.814,112,112,4095
14.816,122,127,4095
14.818,116,111,4095
14.821,121,105,4095
14.824,113,126,4095
14.826,118,105,4095
14.83,112,120,4095
14.832,103,118,4095
14.834,95,109,4095
14.838,113,113,4095
14.841,110,111,4095
14.843,125,121,4095
14.846,127,78,4095
14.848,130,117,4095
14.85,113,112,4095
14.853,113,105,4095
14.856,128,119,4095
14.859,114,127,4095
14.863,128,113,4095
14.865,119,119,4095
14.868,115,114,4095
14.87,128,119,4095
14.872,113,117,4095
14.874,113,128,4095
14.877,121,98,4095
14.879,112,115,4095
14.881,127,115,4095
14.883,113,123,4095
14.886,110,109,4095
14.889,116,116,4095
14.891,115,122,4095
14.893,128,108,4095
14.897,124,130,4095
14.899,112,112,4095
14.901,113,107,4095
14.905,116,109,4095
14.907,114,112,4095
14.909,123,117,4095
14.913,116,116,4095
14.915,114,109,4095
14.917,132,113,4095
14.92,112,140,4095
14.922,113,61,4095
14.924,122,115,4095
14.926,110,113,4095
14.929,112,112,4095
14.932,112,129,4095
14.934,119,109,4095
14.936,118,118,4095
14.939,110,112,4095
14.941,114,120,4095
14.943,123,112,4095
14.946,134,125,4095
14.948,112,112,4095
14.951,111,113,4095
14.953,118,100,4095
14.956,192,122,4095
14.958,91,114,4095
14.96,121,118,4095
14.963,124,112,4095
14.966,115,105,4095
14.968,113,107,4095
14.972,106,123,4095
14.974,118,117,4095
14.976,119,117,4095
14.98,112,106,4095
14.982,128,128,4095
14.984,122,129,4095
14.988,128,83,4095
14.99,112,115,4095
14.992,109,119,4095
14.995,127,111,4095
14.997,106,114,4095
14.999,115,111,4095
15.001,124,113,4095
15.005,118,112,4095
15.008,123,112,4095
15.01,128,121,4095
15.014,69,80,4095
15.016,118,49,4095
15.018,112,117,4095
15.021,113,112,4095
15.024,103,131,4095
15.026,115,113,4095
15.03,128,130,4095
15.032,117,107,4095
15.034,111,108,4095
15.038,128,107,4095
15.04,103,121,4095
15.043,127,65,4095
15.046,123,115,4095
15.048,110,117,4095
15.051,125,112,4095
15.053,116,110,4095
15.055,125,112,4095
15.057,125,109,4095
15.06,106,112,4095
15.063,111,114,4095
15.065,114,126,4095
15.068,115,183,4095
15.071,122,80,4095
15.074,112,112,4095
15.076,116,112,4095
15.078,117,121,4095
15.081,128,116,4095
15.083,124,124,4095
15.085,112,110,4095
15.088,112,112,4095
15.091,122,117,4095
15.093,112,116,4095
15.096,121,112,4095
15.099,116,120,4095
15.101,112,124,4095
15.104,130,105,4095
15.107,126,125,4095
15.109,128,112,4095
15.112,128,114,4095
15.115,112,114,4095
15.117,123,114,4095
15.12,111,128,4095
15.122,114,181,4095
15.124,100,128,4095
15.127,118,117,4095
15.13,117,122,4095
15.132,120,122,4095
15.134,116,121,4095
15.136,121,120,4095
15.139,112,117,4095
15.141,115,123,4095
15.143,129,117,4095
15.147,112,115,4095
15.149,112,125,4095
15.152,112,116,4095
15.155,116,122,4095
15.158,125,116,4095
15.16,128,119,4095
15.163,107,119,4095
15.166,117,112,4095
15.168,112,117,4095
15.171,123,87,4095
15.173,128,121,4095
15.175,111,114,4095
15.178,117,110,4095
15.181,113,112,4095
15.184,115,115,4095
15.186,119,122,4095
15.19,113,107,4095
15.193,118,122,4095
15.197,119,115,4095
15.2,112,121,4095
15.203,131,112,4095
15.207,120,115,4095
15.209,112,106,4095
15.213,125,125,4095
15.216,116,112,4095
15.218,128,115,4095
15.222,112,112,4095
15.224,113,107,4095
15.227,119,120,4095
15.23,80,128,4095
15.232,128,114,4095
15.234,122,119,4095
15.238,112,115,4095
15.241,124,112,4095
15.243,119,135,4095
15.246,114,144,4095
15.249,115,160,4095
15.251,112,81,4095
15.254,113,106,4095
15.257,124,118,4095
15.26,117,111,4095
15.262,133,122,4095
15.265,115,117,4095
15.268,112,111,4095
15.272,119,122,4095
15.274,112,120,4095
15.277,119,122,4095
15.279,120,115,4095
15.281,112,112,4095
15.284,121,113,4095
15.286,112,123,4095
15.29,106,128,4095
15.292,201,112,4095
15.294,112,115,4095
15.298,125,121,4095
15.3,123,127,4095
15.303,112,123,4095
15.306,117,203,4095
15.309,113,112,4095
15.311,119,130,4095
15.314,114,128,4095
15.316,114,112,4095
15.318,107,131,4095
15.321,116,123,4095
15.324,112,115,4095
15.326,124,131,4095
15.329,114,117,4095
15.332,116,114,4095
15.334,122,105,4095
15.338,111,102,4095
15.341,123,118,4095
15.343,113,125,4095
15.346,112,110,4095
15.349,127,118,4095
15.351,128,118,4095
15.355,133,128,4095
15.357,112,131,4095
15.359,110,113,4095
15.363,127,112,4095
15.366,112,107,4095
15.368,128,63,4095
15.372,117,121,4095
15.374,106,113,4095
15.377,118,118,4095
15.379,119,117,4095
15.382,116,124,4095
15.384,118,103,4095
15.386,109,122,4095
15.39,118,112,4095
15.392,122,122,4095
15.394,133,128,4095
15.396,110,128,4095
15.399,115,128,4095
15.401,114,118,4095
15.403,127,134,4095
15.405,113,125,4095
15.407,97,126,4095
15.41,109,128,4095
15.413,118,119,4095
15.416,121,135,4095
15.418,125,127,4095
15.422,112,78,4095
15.424,122,128,4095
15.426,118,115,4095
15.429,127,123,4095
15.432,116,115,4095
15.434,105,127,4095
15.436,121,118,4095
15.439,112,135,4095
15.441,129,117,4095
15.443,123,127,4095
15.446,112,128,4095
15.449,144,128,4095
15.452,115,115,4095
15.455,119,128,4095
15.457,123,138,4095
15.459,112,128,4095
15.461,76,118,4095
15.465,109,203,4095
15.467,113,124,4095
15.469,124,127,4095
15.473,118,123,4095
15.475,112,112,4095
15.477,129,185,4095
15.48,117,135,4095
15.482,122,122,4095
15.484,113,126,4095
15.488,110,112,4095
15.49,112,80,4095
15.493,112,131,4095
15.495,129,109,4095
15.498,122,134,4095
15.5,112,110,4095
15.502,113,129,4095
15.504,121,116,4095
15.507,114,122,4095
15.509,126,127,4095
15.511,128,128,4095
15.515,116,116,4095
15.517,111,128,4095
15.519,128,118,4095
15.523,118,132,4095
15.525,112,128,4095
15.528,122,112,4095
15.531,133,125,4095
15.534,133,129,4095
15.536,113,118,4095
15.539,123,131,4095
15.542,112,73,4095
15.544,125,115,4095
15.546,127,128,4095
15.549,124,75,4095
15.551,115,128,4095
15.553,112,117,4095
15.557,117,113,4095
15.559,122,125,4095
15.563,123,130,4095
15.566,121,123,4095
15.568,115,128,4095
15.571,112,114,4095
15.574,129,125,4095
15.576,111,122,4095
15.578,129,131,4095
15.581,111,113,4095
15.583,112,120,4095
15.585,128,128,4095
15.588,59,131,4095
15.591,126,105,4095
15.593,115,128,4095
15.597,109,113,4095
15.599,126,127,4095
15.601,125,110,4095
15.605,115,125,4095
15.607,117,113,4095
15.61,111,131,4095
15.613,122,115,4095
15.616,121,128,4095
15.618,128,122,4095
15.621,118,111,4095
15.624,111,112,4095
15.626,112,112,4095
15.629,120,128,4095
15.633,118,118,4095
15.635,122,119,4095
15.638,121,118,4095
15.64,114,129,4095
15.642,129,129,4095
15.645,112,124,4095
15.648,115,128,4095
15.65,119,115,4095
15.653,117,128,4095
15.656,129,129,4095
15.658,112,125,4095
15.66,110,112,4095
15.663,116,121,4095
15.665,112,123,4095
15.668,128,114,4095
15.673,85,4095,4095
15.675,87,4095,4095
15.678,83,4095,4095
15.681,96,4095,4095
15.683,97,4095,4095
15.685,86,4095,4095
15.688,80,4095,4095
15.69,77,4095,4095
15.692,85,4095,4095
15.694,73,4095,4095
15.698,82,4095,4095
15.7,88,4095,4095
15.703,91,4095,4095
15.706,93,4095,4095
15.709,90,4095,4095
15.711,90,4095,4095
15.715,89,4095,4095
15.717,85,4095,4095
15.719,70,4095,4095
15.723,84,4095,4095
15.725,81,4095,4095
15.727,83,4095,4095
15.73,81,4095,4095
15.732,95,4095,4095
15.734,90,4095,4095
15.736,80,4095,4095
15.739,86,4095,4095
15.741,87,4095,4095
15.743,87,4095,4095
15.746,80,4095,4095
15.749,70,4095,4095
15.751,90,2983,4095
15.754,112,1755,4095
15.757,87,2977,4095
15.759,82,4095,4095
15.761,90,4095,4095
15.764,81,4095,4095
15.766,75,4095,4095
15.768,93,4095,4095
15.771,83,4095,4095
15.773,112,1616,4095
15.775,113,739,4095
15.777,113,2090,4095
15.781,80,4095,4095
15.784,96,4095,4095
15.786,89,4095,4095
15.79,91,4095,4095
15.792,81,4095,4095
15.794,80,4095,4095
15.798,113,2135,4095
15.8,112,816,4095
15.802,107,2497,4095
15.804,92,4095,4095
15.807,80,4095,4095
15.809,77,4095,4095
15.811,87,4095,4095
15.814,47,4095,4095
15.816,76,4095,4095
15.819,93,2619,4095
15.823,117,1254,4095
15.825,95,3952,4095
15.827,93,4095,4095
15.83,80,4095,4095
15.832,87,4095,4095
15.834,41,4095,4095
15.838,86,4095,4095
15.84,72,4095,4095
15.842,83,4095,4095
15.845,97,2309,4095
15.848,92,4095,4095
15.85,83,4095,4095
15.852,100,4095,4095
15.855,106,4095,4095
15.858,80,4095,4095
15.86,90,4095,4095
15.863,94,4095,4095
15.865,89,4095,4095
15.868,102,2079,4095
15.871,105,4095,4095
15.874,92,4095,4095
15.876,138,4095,4095
15.878,87,4095,4095
15.881,80,4095,4095
15.883,106,4095,4095
15.885,82,4095,4095
15.888,70,4095,4095
15.891,99,2394,4095
15.894,94,4095,4095
15.897,102,4095,4095
15.899,85,4095,4095
15.901,75,4095,4095
15.904,86,4095,4095
15.907,110,4095,4095
15.909,49,4095,4095
15.913,165,4095,4095
15.915,113,1817,4095
15.918,89,4095,4095
15.921,91,4095,4095
15.924,102,4095,4095
15.926,86,4095,4095
15.93,64,4095,4095
15.933,90,4095,4095
15.935,89,4095,4095
15.938,99,2921,4095
15.941,112,850,4095
15.943,135,4095,4095
15.946,80,4095,4095
15.949,55,4095,4095
15.951,80,4095,4095
15.955,82,4095,4095
15.957,114,4095,4095
15.959,69,4095,4095
15.962,85,4095,4095
15.964,80,3759,4095
15.967,96,4095,4095
15.969,80,4095,4095
15.973,102,4095,4095
15.975,112,4095,4095
15.978,90,4095,4095
15.981,155,4095,4095
15.983,87,4095,4095
15.985,86,4095,4095
15.988,99,4095,4095
15.99,84,4095,4095
15.992,71,4095,4095
15.995,127,4095,4095
15.997,80,4095,4095
15.999,83,4095,4095
16.002,80,4095,4095
16.005,160,4095,4095
16.007,81,4095,4095
16.009,112,1825,4095
16.013,46,4095,4095
16.016,96,4095,4095
16.018,85,4095,4095
16.021,71,4095,4095
16.024,79,4095,4095
16.026,33,4095,4095
16.028,91,4095,4095
16.031,82,3666,4095
16.033,112,533,4095
16.035,95,3478,4095
16.038,87,4095,4095
16.041,53,4095,4095
16.043,80,4095,4095
16.046,80,4095,4095
16.049,76,4095,4095
16.051,83,4095,4095
16.055,95,2589,4095
16.057,81,151,4095
16.059,102,2159,4095
16.063,102,4095,4095
16.065,101,4095,4095
16.067,107,4095,4095
16.07,77,4095,4095
16.072,80,4095,4095
16.075,97,4095,4095
16.077,79,4095,4095
16.081,64,404,4095
16.083,177,2629,4095
16.085,92,4095,4095
16.088,63,4095,4095
16.09,83,4095,4095
16.092,87,4095,4095
16.095,90,4095,4095
16.097,81,4095,4095
16.099,87,3094,4095
16.101,128,144,4095
16.105,125,1415,4095
16.107,88,4095,4095
16.11,90,4095,4095
16.113,79,4095,4095
16.116,83,4095,4095
16.118,89,4095,4095
16.122,94,4095,4095
16.124,99,1862,4095
16.126,163,126,4095
16.13,182,143,4095
16.132,80,4095,4095
16.134,137,4095,4095
16.138,159,4095,4095
16.141,80,4095,4095
16.143,86,4095,4095
16.146,135,4095,4095
16.149,133,125,4095
16.152,113,124,4095
16.155,68,128,4095
16.158,112,4095,4095
16.16,90,4095,4095
16.163,71,4095,4095
16.166,101,4095,4095
16.168,83,4095,4095
16.171,85,4095,4095
16.174,97,2434,4095
16.176,121,222,4095
16.179,105,201,4095
16.182,53,4095,4095
16.184,95,4095,4095
16.188,53,4095,4095
16.191,88,4095,4095
16.193,79,4095,4095
16.196,123,4095,4095
16.199,93,4095,4095
16.201,87,128,4095
16.204,130,139,4095
16.207,87,4095,4095
16.209,111,4095,4095
16.211,94,4095,4095
16.215,82,4095,4095
16.218,131,4095,4095
16.221,98,4095,4095
16.225,102,4095,4095
16.228,121,207,4095
16.231,135,154,4095
16.234,44,4095,4095
16.236,98,4095,4095
16.24,77,4095,4095
16.242,92,4095,4095
16.245,80,4095,4095
16.249,100,4095,4095
16.251,151,4095,4095
16.255,99,3128,4095
16.258,112,3087,4095
16.26,78,4095,4095
16.263,85,4095,4095
16.266,96,4095,4095
16.269,117,4095,4095
16.272,86,4095,4095
16.274,37,4095,4095
16.276,134,4095,4095
16.28,78,4095,4095
16.282,95,4095,4095
16.285,90,4095,4095
16.288,71,4095,4095
16.29,86,4095,4095
16.293,95,4095,4095
16.296,105,4095,4095
16.299,112,4095,4095
16.302,89,4095,4095
16.305,85,4095,4095
16.308,95,4095,4095
16.31,125,4095,4095
16.314,90,4095,4095
16.316,75,4095,4095
16.318,155,4095,4095
16.321,86,4095,4095
16.323,119,4095,4095
16.326,80,4095,4095
16.329,74,4095,4095
16.332,161,4095,4095
16.334,96,4095,4095
16.338,139,4095,4095
16.34,96,4095,4095
16.342,86,4095,4095
16.345,46,4095,4095
16.348,97,4095,4095
16.35,58,4095,4095
16.352,64,4095,4095
16.356,77,4095,4095
16.358,81,4095,4095
16.36,61,4095,4095
16.363,43,4095,4095
16.365,82,4095,4095
16.368,82,4095,4095
16.372,106,4095,4095
16.375,26,4095,4095
16.378,17,4095,4095
16.382,80,4095,4095
16.384,80,4095,4095
16.387,99,4095,4095
16.389,123,4095,4095
16.392,55,4095,4095
16.394,94,4095,4095
16.396,57,4095,4095
16.399,99,4095,4095
16.401,96,4095,4095
16.405,100,4095,4095
16.407,144,4095,4095
16.41,93,4095,4095
16.413,123,4095,4095
16.416,59,4095,4095
16.418,86,4095,4095
16.421,89,4095,4095
16.423,100,4095,4095
16.425,83,4095,4095
16.428,149,3379,4095
16.432,112,4095,4095
16.434,65,4095,4095
16.438,48,4095,4095
16.441,98,4095,4095
16.444,87,4095,4095
16.447,66,4095,4095
16.45,66,4095,4095
16.452,81,4095,4095
16.455,89,1793,4095
16.457,80,4095,4095
16.46,85,4095,4095
16.464,82,4095,4095
16.466,179,4095,4095
16.469,92,4095,4095
16.472,134,4095,4095
16.474,93,4095,4095
16.476,89,4095,4095
16.479,112,2715,4095
16.482,114,4095,4095
16.484,96,4095,4095
16.488,22,4095,4095
16.491,102,4095,4095
16.493,26,4095,4095
16.497,113,4095,4095
16.499,141,4095,4095
16.501,94,4095,4095
16.504,111,4095,4095
16.507,111,4095,4095
16.509,80,4095,4095
16.514,13,4095,4095
16.516,82,4095,4095
16.519,102,4095,4095
16.524,82,4095,1482
16.526,122,4095,3114
16.53,112,4095,4095
16.533,176,4095,4095
16.535,111,4095,3685
16.538,101,4095,4095
16.541,96,4095,4095
16.543,94,4095,4095
16.547,95,4095,4095
16.55,119,4095,157
16.552,111,4095,4095
16.555,69,4095,4095
16.557,112,4095,4095
16.56,92,4095,4095
16.564,83,4095,4095
16.566,99,4095,4095
16.568,178,4095,4095
16.571,45,4095,4095
16.574,66,4095,4095
16.576,99,4095,4095
16.58,80,4095,4095
16.582,91,4095,4095
16.585,144,4095,4095
16.587,173,4095,4095
16.59,134,4095,4095
16.592,113,4095,4095
16.594,128,4095,4095
16.598,70,4095,4095
16.601,129,4095,4095
16.603,102,2505,4095
16.606,187,496,4095
16.608,82,4095,4095
16.61,156,4095,4095
16.613,96,4095,4095
16.615,145,4095,4095
16.617,94,4095,4095
16.62,110,4095,4095
16.622,93,4095,4095
16.624,121,1461,4095
16.627,113,170,4095
16.629,45,4095,4095
16.632,94,4095,4095
16.635,85,4095,4095
16.639,87,4095,4095
16.642,64,4095,4095
16.645,91,4095,4095
16.648,84,4095,4095
16.65,105,1836,4095
16.653,128,144,4095
16.657,91,4095,4095
16.659,58,4095,4095
16.661,111,4095,4095
16.664,107,4095,4095
16.666,112,4095,4095
16.669,80,4095,4095
16.672,96,4095,4095
16.675,112,1253,4095
16.677,112,159,4095
16.681,177,4095,4095
16.683,87,4095,4095
16.686,55,4095,4095
16.69,108,4095,4095
16.693,84,4095,4095
16.697,144,4095,4095
16.7,93,4095,4095
16.702,112,1321,4095
16.706,133,169,4095
16.709,38,4095,4095
16.713,49,4095,4095
16.716,83,4095,4095
16.718,90,4095,4095
16.721,80,4095,4095
16.724,105,4095,4095
16.726,103,4095,4095
16.73,130,727,4095
16.732,129,140,4095
16.734,93,4059,4095
16.738,85,4095,4095
16.74,66,4095,4095
16.743,58,4095,4095
16.746,62,4095,4095
16.749,82,4095,4095
16.751,102,4095,4095
16.755,117,1075,4095
16.757,130,142,4095
16.759,75,3630,4095
16.763,97,4095,4095
16.765,94,4095,4095
16.768,97,4095,4095
16.771,82,4095,4095
16.774,148,4095,4095
16.776,87,4095,4095
16.778,115,501,4095
16.782,112,123,4095
16.784,123,2618,4095
16.788,84,4095,4095
16.791,88,4095,4095
16.793,118,4095,4095
16.796,91,4095,4095
16.799,65,4095,4095
16.801,78,4095,4095
16.805,112,959,4095
16.807,64,109,4095
16.809,113,2631,4095
16.813,101,4095,4095
16.815,86,4095,4095
16.818,171,4095,4095
16.822,82,4095,4095
16.825,106,4095,4095
16.827,111,4095,4095
16.83,84,2733,4095
16.832,128,671,4095
16.834,91,4095,4095
16.838,83,4095,4095
16.84,129,4095,4095
16.842,91,4095,4095
16.845,80,4095,4095
16.847,153,4095,4095
16.85,103,4095,4095
16.852,89,4095,4095
16.854,96,4095,4095
16.857,86,4095,4095
16.86,90,4095,4095
16.863,37,4095,4095
16.866,90,4095,4095
16.868,80,4095,4095
16.871,122,4095,4095
16.874,106,4095,4095
16.876,87,4095,4095
16.878,101,4095,4095
16.881,91,4095,4095
16.883,81,4095,4095
16.885,172,4095,4095
16.887,96,4095,4095
16.89,82,4095,4095
16.893,99,4095,4095
16.896,107,4095,4095
16.899,90,4095,4095
16.901,101,4095,4095
16.905,91,4095,4095
16.907,90,4095,4095
16.91,90,4095,4095
16.913,83,4095,4095
16.916,90,4095,4095
16.918,133,4095,4095
16.921,110,4095,4095
16.924,101,4095,4095
16.926,93,4095,4095
16.929,97,4095,4095
16.933,86,4095,4095
16.935,93,4095,4095
16.939,93,4095,4095
16.941,98,4095,4095
16.943,101,4095,4095
16.946,89,4095,4095
16.949,97,4095,4095
16.951,93,4095,4095
16.954,69,4095,4095
16.957,48,4095,4095
16.959,95,4095,4095
16.962,48,4095,4095
16.965,85,4095,4095
16.967,181,4095,4095
16.971,97,4095,4095
16.974,97,4095,4095
16.976,87,4095,4095
16.979,94,4095,4095
16.982,86,4095,4095
16.984,86,4095,4095
16.986,91,4095,4095
16.989,98,4095,4095
16.991,141,4095,4095
16.993,103,4095,4095
16.996,95,4095,4095
16.999,99,4095,4095
17.001,91,4095,4095
17.004,84,4095,4095
17.007,95,4095,4095
17.01,92,4095,4095
17.013,91,4095,4095
17.016,84,4095,4095
17.018,106,4095,4095
17.021,96,4095,4095
17.024,86,4095,4095
17.026,107,4095,4095
17.028,87,4095,4095
17.031,81,4095,4095
17.033,84,4095,4095
17.035,98,4095,4095
17.037,112,4095,4095
17.04,112,4095,4095
17.042,107,4095,4095
17.046,105,4095,4095
17.048,94,4095,4095
17.051,86,4095,4095
17.053,80,4095,4095
17.056,95,4095,4095
17.058,103,4095,4095
17.06,93,4095,4095
17.064,97,4095,4095
17.066,97,4095,4095
17.068,99,4095,4095
17.071,90,4095,4095
17.073,95,4095,4095
17.075,71,4095,4095
17.078,82,4095,4095
17.082,85,4095,4095
17.084,96,4095,4095
17.086,101,4095,4095
17.09,101,4095,4095
17.092,83,4095,4095
17.094,81,4095,4095
17.098,97,4095,4095
17.1,88,4095,4095
17.102,80,4095,4095
17.105,86,4095,4095
17.107,86,4095,4095
17.109,101,4095,4095
17.111,83,4095,4095
17.114,97,4095,4095
17.116,99,4095,4095
17.119,85,4095,4095
17.122,87,4095,4095
17.124,78,4095,4095
17.126,93,4095,4095
17.128,93,4095,4095
17.131,98,4095,4095
17.133,81,4095,4095
17.136,112,1790,4095
17.139,109,762,4095
17.142,112,3781,4095
17.144,95,4095,4095
17.148,91,4095,4095
17.152,90,4095,4095
17.155,94,4095,4095
17.158,91,4095,4095
17.16,99,4095,4095
17.163,93,4095,4095
17.165,94,4095,4095
17.168,89,4095,4095
17.171,86,4095,4095
17.174,89,4095,4095
17.176,94,4095,4095
17.178,89,4095,4095
17.181,80,4095,4095
17.183,95,4095,4095
17.185,96,4095,4095
17.188,95,4095,4095
17.191,84,4095,4095
17.194,97,4095,4095
17.198,86,4095,4095
17.2,86,4095,4095
17.203,80,4095,4095
17.206,90,4095,4095
17.208,91,4095,4095
17.211,85,4095,4095
17.214,90,4095,4095
17.217,88,4095,4095
17.219,80,4095,4095
17.223,87,4095,4095
17.226,94,4095,4095
17.229,95,4095,4095
17.232,97,4095,4095
17.234,86,4095,4095
17.236,82,4095,4095
17.239,95,4095,4095
17.241,89,4095,4095
17.244,83,4095,4095
17.246,97,4095,4095
17.249,95,4095,4095
17.251,132,4095,4095
17.255,80,4095,4095
17.257,96,4095,4095
17.26,100,4095,4095
17.263,107,4095,4095
17.266,93,4095,4095
17.268,80,4095,4095
17.272,94,4095,4095
17.274,80,4095,4095
17.277,86,4095,4095
17.28,81,4095,4095
17.282,94,4095,4095
17.285,86,4095,4095
17.288,90,4095,4095
17.291,100,4095,4095
17.293,95,4095,4095
17.296,94,4095,4095
17.299,98,4095,4095
17.301,99,4095,4095
17.304,81,4095,4095
17.307,84,4095,4095
17.309,81,4095,4095
17.312,93,4095,4095
17.315,91,4095,4095
17.318,87,4095,4095
17.321,94,4095,4095
17.324,95,4095,4095
17.326,103,4095,4095
17.329,86,4095,4095
17.332,94,4095,4095
17.334,95,4095,4095
17.336,61,4095,4095
17.34,91,4095,4095
17.343,80,4095,4095
17.346,86,4095,4095
17.349,100,4095,4095
17.352,56,4095,4095
17.354,99,4095,4095
17.357,101,4095,4095
17.359,107,4095,4095
17.361,91,4095,4095
17.364,90,4095,4095
17.367,89,4095,4095
17.369,83,4095,4095
17.373,101,4095,4095
17.375,83,4095,4095
17.378,87,4095,4095
17.381,96,4095,4095
17.383,95,4095,4095
17.386,49,4095,4095
17.39,80,4095,4095
17.392,98,4095,4095
17.394,97,4095,4095
17.397,95,4095,4095
17.4,85,4095,4095
17.402,85,4095,4095
17.405,82,4095,4095
17.407,87,4095,4095
17.409,87,4095,4095
17.413,94,4095,4095
17.416,91,4095,4095
17.418,93,4095,4095
17.421,99,4095,4095
17.424,101,4095,4095
17.426,86,4095,4095
17.429,80,4095,4095
17.432,91,4095,4095
17.434,77,4095,4095
17.437,81,4095,4095
17.44,85,4095,4095
17.442,93,4095,4095
17.445,89,4095,4095
17.448,102,4095,4095
17.45,90,4095,4095
17.453,100,4095,4095
17.457,81,4095,4095
17.459,87,4095,4095
17.461,91,4095,4095
17.465,100,4095,4095
17.467,86,4095,4095
17.469,80,4095,4095
17.472,99,4095,4095
17.474,90,4095,4095
17.476,91,4095,4095
17.48,86,4095,4095
17.482,85,4095,4095
17.484,91,4095,4095
17.487,89,4095,4095
17.49,81,4095,4095
17.492,95,4095,4095
17.494,101,4095,4095
17.498,105,4095,4095
17.5,85,4095,4095
17.503,92,4095,4095
17.506,87,4095,4095
17.508,80,4095,4095
17.51,87,4095,4095
17.514,81,4095,4095
17.516,86,4095,4095
17.518,87,4095,4095
17.521,99,4095,4095
17.524,87,4095,4095
17.527,89,4095,4095
17.53,97,4095,4095
17.532,96,4095,4095
17.534,89,4095,4095
17.536,91,4095,4095
17.539,89,4095,4095
17.541,91,4095,4095
17.544,89,4095,4095
17.547,96,4095,4095
17.549,86,4095,4095
17.551,95,4095,4095
17.555,97,4095,4095
17.557,89,4095,4095
17.56,86,4095,4095
17.563,92,4095,4095
17.566,89,4095,4095
17.568,83,4095,4095
17.571,89,4095,4095
17.574,92,4095,4095
17.576,85,4095,4095
17.579,86,4095,4095
17.582,98,4095,4095
17.584,95,4095,4095
17.586,99,4095,4095
17.589,67,4095,4095
17.592,89,4095,4095
17.594,96,4095,4095
17.597,85,4095,4095
17.6,80,4095,4095
17.602,97,4095,4095
17.606,95,4095,4095
17.609,87,4095,4095
17.612,93,4095,4095
17.614,97,4095,4095
17.617,97,4095,4095
17.619,173,4095,4095
17.622,94,4095,4095
17.625,80,4095,4095
17.627,86,4095,4095
17.632,93,4095,4095
17.635,91,4095,4095
17.638,53,4095,4095
17.64,90,4095,4095
17.643,91,4095,4095
17.646,97,4095,4095
17.649,93,4095,4095
17.651,87,4095,4095
17.655,87,4095,4095
17.657,85,4095,4095
17.659,84,4095,4095
17.663,80,4095,4095
17.666,92,4095,4095
17.669,95,4095,4095
17.674,80,4095,4095
17.676,91,4095,4095
17.68,101,4095,4095
17.683,87,4095,4095
17.685,87,4095,4095
17.688,93,4095,4095
17.69,85,4095,4095
17.692,82,4095,4095
17.695,83,4095,4095
17.699,87,4095,4095
17.701,98,4095,4095
17.704,94,4095,4095
17.707,157,4095,4095
17.71,98,4095,4095
17.713,97,4095,4095
17.716,96,4095,4095
17.718,92,4095,4095
17.722,99,4095,4095
17.725,93,4095,4095
17.727,86,4095,4095
17.73,80,4095,4095
17.733,87,4095,4095
17.735,112,4095,4095
17.738,88,4095,4095
17.74,89,4095,4095
17.743,91,4095,4095
17.746,98,4095,4095
17.749,96,4095,4095
17.751,85,4095,4095
17.755,69,4095,4095
17.757,90,4095,4095
17.76,99,4095,4095
17.763,87,4095,4095
17.765,85,4095,4095
17.767,99,4095,4095
17.77,91,4095,4095
17.773,95,4095,4095
17.776,90,4095,4095
17.778,95,4095,4095
17.781,90,4095,4095
17.784,97,4095,4095
17.788,101,4095,4095
17.79,77,4095,4095
17.793,82,4095,4095
17.795,85,4095,4095
17.797,94,4095,4095
17.799,87,4095,4095
17.801,102,4095,4095
17.805,86,4095,4095
17.807,95,4095,4095
17.81,94,4095,4095
17.812,80,4095,4095
17.815,90,4095,4095
17.817,82,4095,4095
17.819,87,4095,4095
17.823,88,4095,4095
17.825,94,4095,4095
17.828,93,4095,4095
17.831,91,4095,4095
17.833,99,4095,4095
17.836,90,4095,4095
17.839,97,4095,4095
17.841,94,4095,4095
17.843,79,4095,4095
17.846,108,4095,4095
17.849,80,4095,4095
17.851,92,4095,4095
17.854,84,4095,4095
17.857,90,4095,4095
17.86,92,4095,4095
17.863,77,4095,4095
17.866,82,4095,4095
17.868,98,4095,4095
17.871,92,4095,4095
17.873,96,4095,4095
17.875,90,4095,4095
17.878,98,4095,4095
17.88,91,4095,4095
17.882,93,4095,4095
17.884,86,4095,4095
17.887,97,4095,4095
17.89,86,4095,4095
17.892,93,4095,4095
17.896,107,4095,4095
17.899,95,4095,4095
17.901,85,4095,4095
17.905,89,4095,4095
17.908,81,4095,4095
17.91,90,4095,4095
17.913,85,4095,4095
17.915,90,4095,4095
17.917,101,4095,4095
17.919,94,4095,4095
17.923,99,4095,4095
17.925,86,4095,4095
17.928,91,4095,4095
17.931,81,4095,4095
17.934,79,4095,4095
17.936,84,4095,4095
17.94,65,4095,4095
17.942,99,4095,4095
17.945,83,4095,4095
17.947,88,4095,4095
17.95,91,4095,4095
17.952,96,4095,4095
17.954,86,4095,4095
17.957,87,4095,4095
17.959,91,4095,4095
17.961,95,4095,4095
17.964,92,4095,4095
17.966,88,4095,4095
17.969,90,4095,4095
17.973,83,4095,4095
17.975,89,4095,4095
17.978,95,4095,4095
17.981,102,4095,4095
17.983,89,4095,4095
17.985,94,4095,4095
17.988,87,4095,4095
17.99,97,4095,4095
17.992,92,4095,4095
17.994,100,4095,4095
17.998,91,4095,4095
18.0,81,4095,4095
18.003,96,4095,4095
18.006,98,4095,4095
18.009,93,4095,4095
18.011,88,4095,4095
18.014,87,4095,4095
18.016,81,4095,4095
18.018,87,4095,4095
18.021,80,4095,4095
18.023,87,4095,4095
18.025,97,4095,4095
18.027,96,4095,4095
18.031,90,4095,4095
18.033,107,4095,4095
18.035,96,4095,4095
18.038,80,4095,4095
18.04,80,4095,4095
18.042,87,4095,4095
18.046,96,4095,4095
18.049,78,4095,4095
18.051,94,4095,4095
18.054,98,4095,4095
18.057,101,4095,4095
18.059,93,4095,4095
18.061,55,4095,4095
18.064,103,4095,4095
18.066,80,4095,4095
18.068,81,4095,4095
18.072,90,4095,4095
18.074,97,4095,4095
18.076,84,4095,4095
18.08,82,4095,4095
18.083,100,4095,4095
18.085,95,4095,4095
18.088,90,4095,4095
18.091,85,4095,4095
18.093,91,4095,4095
18.096,93,4095,4095
18.099,95,4095,4095
18.101,85,4095,4095
18.104,85,4095,4095
18.107,96,3495,4095
18.109,105,4095,4095
18.111,81,4095,4095
18.114,95,4095,4095
18.116,95,4095,4095
18.119,91,4095,4095
18.123,95,4095,4095
18.125,84,4095,4095
18.127,98,3340,4095
18.13,102,2288,4095
18.132,94,4095,4095
18.134,98,4095,4095
18.136,98,4095,4095
18.139,82,4095,4095
18.141,105,4095,4095
18.143,94,4095,4095
18.146,80,4095,4095
18.149,102,2091,4095
18.151,125,1318,4095
18.155,107,3181,4095
18.158,84,4095,4095
18.16,96,4095,4095
18.163,95,4095,4095
18.166,100,4095,4095
18.168,86,4095,4095
18.171,97,2992,4095
18.173,116,958,4095
18.175,116,147,4095
18.177,128,805,4095
18.181,110,3427,4095
18.183,90,4095,4095
18.185,94,4095,4095
18.188,48,4095,4095
18.191,90,4095,4095
18.193,105,1387,4095
18.196,128,143,4095
18.199,131,123,4095
18.201,126,92,4095
18.205,153,799,4095
18.207,93,4095,4095
18.21,103,4095,4095
18.213,90,4095,4095
18.215,107,3376,4095
18.217,115,141,4095
18.221,132,123,4095
18.224,124,125,4095
18.226,137,120,4095
18.23,121,99,4095
18.232,107,2630,4095
18.234,98,4095,4095
18.238,97,4095,4095
18.241,95,2736,4095
18.243,128,130,4095
18.246,126,136,4095
18.249,123,129,4095
18.251,132,122,4095
18.254,133,141,4095
18.257,114,1434,4095
18.259,103,4095,4095
18.261,89,4095,4095
18.264,103,2640,4095
18.267,116,144,4095
18.269,141,139,4095
18.273,131,131,4095
18.275,112,129,4095
18.277,129,128,4095
18.281,106,2599,4095
18.283,100,4095,4095
18.285,98,4095,4095
18.287,82,4095,4095
18.29,107,1753,4095
18.292,128,140,4095
18.294,127,109,4095
18.296,131,82,4095
18.298,112,1399,4095
18.301,80,4095,4095
18.304,103,4095,4095
18.307,81,4095,4095
18.309,91,4095,4095
18.313,93,3745,4095
18.315,119,693,4095
18.318,135,155,4095
18.321,123,181,4095
18.324,121,2362,4095
18.326,81,4095,4095
18.329,81,4095,4095
18.332,81,4095,4095
18.334,97,4095,4095
18.336,80,4095,4095
18.34,106,1892,4095
18.342,131,260,4095
18.345,124,625,4095
18.348,107,2803,4095
18.351,95,4095,4095
18.353,94,4095,4095
18.356,89,4095,4095
18.358,93,4095,4095
18.361,105,4095,4095
18.365,107,2182,4095
18.367,112,461,4095
18.37,121,1203,4095
18.372,104,3594,4095
18.375,57,4095,4095
18.377,93,4095,4095
18.381,94,4095,4095
18.383,87,4095,4095
18.385,93,4095,4095
18.388,110,1479,4095
18.39,130,133,4095
18.392,115,169,4095
18.394,125,1747,4095
18.398,86,4095,4095
18.4,87,4095,4095
18.402,88,4095,4095
18.406,93,4095,4095
18.408,96,4095,4095
18.41,116,661,4095
18.413,130,174,4095
18.415,118,156,4095
18.418,117,1566,4095
18.421,102,4095,4095
18.423,78,4095,4095
18.426,45,4095,4095
18.428,96,4095,4095
18.431,112,4095,4095
18.433,125,443,4095
18.435,127,193,4095
18.438,124,127,4095
18.441,129,780,4095
18.443,94,4095,4095
18.446,97,4095,4095
18.449,86,4095,4095
18.451,93,4095,4095
18.455,109,2753,4095
18.457,123,167,4095
18.459,141,144,4095
18.463,126,122,4095
18.465,129,135,4095
18.467,117,2132,4095
18.47,97,4095,4095
18.472,87,4095,4095
18.474,107,2859,4095
18.476,81,365,4095
18.479,117,83,4095
18.482,147,143,4095
18.484,129,132,4095
18.488,123,128,4095
18.49,128,144,4095
18.492,94,4095,4095
18.495,91,4095,4095
18.497,86,4095,4095
18.499,113,4095,4095
18.502,128,631,4095
18.505,127,125,4095
18.507,114,119,4095
18.51,115,2310,4095
18.513,95,4095,4095
18.515,84,4095,4095
18.517,100,4095,4095
18.52,112,4095,4095
18.522,109,4095,4095
18.525,117,122,4095
18.527,201,126,4095
18.531,124,135,4095
18.533,124,2576,4095
18.535,96,4095,4095
18.538,64,4095,4095
18.54,85,4095,4095
18.542,98,4095,4095
18.545,171,208,4095
18.547,129,80,4095
18.549,128,128,4095
18.552,128,134,4095
18.554,99,4095,4095
18.556,107,4095,4095
18.559,107,4095,4095
18.561,109,4095,4095
18.564,131,4095,4095
18.566,112,146,4095
18.569,137,130,4095
18.571,133,106,4095
18.574,69,4095,4095
18.576,97,4095,4095
18.578,92,4095,4095
18.58,102,4095,4095
18.582,112,4095,4095
18.585,119,4095,4095
18.588,158,147,4095
18.59,144,117,4095
18.592,128,128,4095
18.595,144,144,4095
18.598,93,4095,4095
18.6,80,4095,4095
18.602,94,4095,4095
18.606,106,4095,4095
18.609,118,4095,4095
18.611,140,144,4095
18.614,125,130,4095
18.617,117,129,4095
18.619,134,131,4095
18.622,97,4095,4095
18.624,87,4095,4095
18.626,96,4095,4095
18.629,97,4095,4095
18.632,122,4095,4095
18.634,177,155,4095
18.638,144,134,405
18.64,107,4095,4095
18.643,98,4095,4095
18.646,85,4095,4095
18.649,115,4095,4095
18.651,127,4095,4095
18.655,148,165,4095
18.657,132,144,4095
18.659,122,114,4095
18.662,139,119,4095
18.665,115,4095,4095
18.667,95,4095,4095
18.67,103,4095,4095
18.673,119,4095,4095
18.675,123,4095,4095
18.677,151,144,4095
18.681,128,114,4095
18.683,139,207,4095
18.685,125,135,4095
18.688,95,4095,4095
18.691,115,4095,4095
18.693,177,4095,4095
18.696,71,4095,4095
18.699,115,4095,4095
18.701,144,151,4095
18.704,144,112,4095
18.707,133,134,4095
18.71,126,133,4095
18.713,100,4095,4095
18.715,99,4095,4095
18.717,95,4095,4095
18.72,112,4095,4095
18.722,137,4095,4095
18.724,151,144,4095
18.727,146,126,4095
18.73,129,139,4095
18.732,128,128,4095
18.734,96,4095,4095
18.736,96,4095,4095
18.739,89,4095,4095
18.741,113,4095,4095
18.743,128,4095,4095
18.747,147,131,4095
18.749,128,133,4095
18.752,142,119,4095
18.755,134,144,4095
18.758,80,4095,4095
18.76,99,4095,4095
18.763,102,4095,4095
18.766,107,4095,4095
18.768,192,4095,4095
18.771,159,157,4095
18.774,133,129,4095
18.776,144,128,4095
18.779,128,135,4095
18.782,64,4095,4095
18.785,126,4095,4095
18.788,103,4095,4095
18.791,103,4095,4095
18.793,140,4095,4095
18.796,150,144,4095
18.798,118,118,4095
18.8,135,130,4095
18.803,119,123,4095
18.806,135,112,4095
18.809,86,4095,4095
18.811,103,4095,4095
18.815,112,4095,4095
18.817,113,4095,4095
18.819,145,128,4095
18.823,134,140,4095
18.826,137,120,4095
18.828,126,127,4095
18.831,128,126,4095
18.833,94,4095,4095
18.835,97,4095,4095
18.838,106,4095,4095
18.84,112,4095,4095
18.842,144,146,4095
18.844,143,123,4095
18.848,128,130,4095
18.85,119,138,4095
18.852,135,121,4095
18.856,98,4095,4095
18.859,94,4095,4095
18.861,111,4095,4095
18.865,112,4095,4095
18.867,144,141,4095
18.869,138,134,4095
18.873,122,111,4095
18.875,135,117,4095
18.877,127,122,4095
18.879,112,4095,4095
18.882,98,4095,4095
18.884,101,4095,4095
18.886,108,4095,4095
18.889,98,144,4095
18.892,143,128,4095
18.896,144,135,4095
18.899,97,127,4095
18.901,128,112,4095
18.904,83,4095,4095
18.907,102,4095,4095
18.909,87,4095,4095
18.911,105,4095,4095
18.914,144,144,4095
18.916,141,139,4095
18.918,120,116,4095
18.921,128,134,4095
18.924,134,107,4095
18.926,139,3172,4095
18.93,103,4095,4095
18.932,96,4095,4095
18.935,106,4095,4095
18.938,147,144,4095
18.941,156,135,4095
18.943,143,138,4095
18.946,114,129,4095
18.949,139,135,4095
18.951,103,4095,4095
18.953,86,4095,4095
18.956,102,4095,4095
18.958,118,4095,4095
18.96,128,99,4095
18.963,149,130,4095
18.965,128,112,4095
18.968,139,116,4095
18.971,123,117,4095
18.974,125,133,4095
18.976,89,4095,4095
18.978,93,4095,4095
18.981,124,4095,4095
18.983,144,143,4095
18.985,132,139,4095
18.988,117,131,4095
18.99,118,121,4095
18.993,141,130,4095
18.996,137,139,4095
18.998,119,4095,4095
19.0,111,4095,4095
19.003,114,4095,4095
19.006,119,130,4095
19.008,139,144,4095
19.011,137,117,4095
19.014,134,139,4095
19.016,133,121,4095
19.019,129,136,4095
19.021,113,4095,4095
19.024,111,4095,4095
19.026,116,4095,4095
19.028,142,133,4095
19.031,143,125,4095
19.033,133,141,4095
19.035,126,116,4095
19.038,129,130,4095
19.04,125,126,4095
19.043,131,158,4095
19.046,112,4095,4095
19.049,141,144,4095
19.051,128,114,4095
19.054,144,131,4095
19.057,135,119,4095
19.059,135,118,4095
19.061,121,113,4095
19.064,144,114,4095
19.066,123,127,4095
19.068,128,143,4095
19.071,126,128,4095
19.073,126,131,4095
19.075,139,141,4095
19.079,131,114,4095
19.082,126,120,4095
19.084,128,117,4095
19.087,142,125,4095
19.09,124,130,4095
19.092,124,115,4095
19.094,129,122,4095
19.098,120,103,4095
19.1,133,170,4095
19.102,121,119,4095
19.105,124,112,4095
19.107,141,130,4095
19.11,139,119,4095
19.113,119,139,4095
19.116,130,136,4095
19.118,128,93,4095
19.121,128,128,4095
19.123,125,121,4095
19.126,121,108,4095
19.128,122,122,4095
19.131,136,122,4095
19.133,129,119,4095
19.135,120,112,4095
19.138,140,125,4095
19.14,124,123,4095
19.142,95,133,4095
19.144,125,120,4095
19.148,126,128,4095
19.15,128,117,4095
19.153,130,112,4095
19.156,135,113,4095
19.159,122,119,4095
19.161,123,112,4095
19.164,134,114,4095
19.166,112,118,4095
19.168,134,48,4095
19.171,122,125,4095
19.173,128,103,4095
19.176,137,129,4095
19.178,133,118,4095
19.181,128,132,4095
19.183,117,115,4095
19.186,124,122,4095
19.19,131,131,4095
19.192,118,105,4095
19.194,122,176,4095
19.198,119,119,4095
19.2,138,112,4095
19.202,131,129,4095
19.206,126,124,4095
19.208,132,113,4095
19.211,91,110,4095
19.215,133,119,4095
19.217,121,123,4095
19.219,121,116,4095
19.222,129,109,4095
19.225,114,128,4095
19.228,138,107,4095
19.231,127,192,4095
19.234,125,112,4095
19.236,125,112,4095
19.239,125,102,4095
19.241,128,135,4095
19.243,134,78,4095
19.247,114,116,4095
19.249,128,112,4095
19.251,119,116,4095
19.255,135,116,4095
19.257,133,128,4095
19.259,122,106,4095
19.263,145,115,4095
19.266,128,127,4095
19.269,125,129,4095
19.272,128,111,4095
19.274,128,119,4095
19.276,122,114,4095
19.279,119,121,4095
19.282,123,107,4095
19.284,97,99,2674
19.286,129,131,2368
19.289,142,132,3823
19.292,128,134,4095
19.294,235,158,131
19.298,161,144,175
19.301,159,144,1391
19.304,138,128,3289
19.307,137,128,2007
19.31,155,143,154
19.313,166,153,195
19.316,154,161,171
19.318,159,150,172
19.321,144,148,166
19.324,160,149,150
19.326,139,147,185
19.33,173,170,178
19.332,165,166,647
19.335,158,173,147
19.338,154,141,141
19.341,155,161,151
19.343,149,149,157
19.346,154,135,157
19.349,167,149,98
19.352,103,163,159
19.355,158,162,176
19.357,154,147,177
19.36,162,174,192
19.363,169,144,167
19.366,147,162,169
19.368,147,146,167
19.371,162,150,179
19.374,155,112,129
19.376,147,145,133
19.379,170,145,155
19.382,147,170,218
19.384,163,143,173
19.386,149,170,154
19.389,165,165,138
19.391,163,144,175
19.393,157,162,145
19.396,156,141,191
19.399,163,153,123
19.401,147,150,147
19.404,161,144,158
19.407,166,146,163
19.409,158,159,144
19.413,235,146,151
19.416,144,155,151
19.418,157,161,162
19.421,141,153,159
19.424,146,158,156
19.426,153,145,160
19.428,161,171,171
19.431,163,146,155
19.433,155,145,183
19.436,153,144,148
19.439,149,155,154
19.441,148,98,165
19.443,145,170,166
19.446,165,144,182
19.449,155,144,160
19.451,146,151,166
19.454,149,150,146
19.457,163,154,176
19.459,156,149,160
19.463,165,139,163
19.465,157,164,171
19.467,158,157,185
19.469,161,144,192
19.473,145,159,146
19.475,163,147,142
19.477,156,157,175
19.481,142,157,147
19.483,149,145,245
19.485,172,159,182
19.489,146,144,195
19.491,159,176,178
19.493,150,166,154
19.496,160,161,157
19.498,146,151,146
19.5,148,161,82
19.503,163,144,149
19.506,150,162,182
19.508,150,210,166
19.51,144,163,171
19.513,172,156,191
19.515,155,156,167
19.517,250,146,180
19.52,148,170,161
19.523,163,154,155
19.525,160,142,177
19.527,148,159,174
19.53,164,137,212
19.533,150,146,192
19.535,143,144,165
19.538,148,101,242
19.54,164,160,157
19.543,149,154,149
19.546,157,160,182
19.549,156,155,135
19.551,161,171,176
19.553,147,149,102
19.555,152,142,162
19.558,159,145,487
19.56,150,150,174
19.564,158,147,176
19.566,147,162,185
19.568,161,163,171
19.571,145,170,176
19.573,174,155,144
19.575,164,151,156
19.578,159,157,194
19.581,150,148,666
19.583,157,154,171
19.585,170,165,163
19.588,146,147,193
19.59,154,152,160
19.592,141,162,174
19.596,171,144,168
19.599,143,146,175
19.601,162,149,170
19.604,166,144,186
19.607,145,173,2058
19.609,157,145,144
19.611,165,163,163
19.614,163,151,160
19.616,154,155,283
19.618,148,145,176
19.621,160,162,162
19.624,167,87,146
19.626,154,163,188
19.63,166,135,1139
19.633,141,161,350
19.635,157,154,193
19.638,144,167,183
19.641,175,165,163
19.643,165,142,688
19.646,160,157,176
19.649,153,157,148
19.651,163,162,194
19.654,161,162,299
19.657,148,128,2384
19.659,157,158,163
19.662,155,166,160
19.665,160,126,117
19.667,146,171,199
19.671,174,163,181
19.674,160,144,171
19.676,159,155,174
19.679,152,144,190
19.682,148,151,1506
19.684,129,133,2439
19.686,167,158,173
19.69,163,144,183
19.692,163,168,150
19.694,136,143,1610
19.698,162,158,160
19.7,164,151,185
19.702,157,146,192
19.705,165,145,753
19.708,153,165,3008
19.71,134,159,158
19.713,147,145,163
19.716,163,161,159
19.718,145,145,1238
19.721,145,147,176
19.723,146,146,171
19.725,164,161,176
19.727,149,141,207
19.731,160,149,2227
19.733,128,132,3038
19.735,163,175,180
19.738,157,144,158
19.74,163,221,171
19.743,144,124,2288
19.746,158,146,153
19.749,155,134,176
19.751,151,213,194
19.754,165,138,1649
19.757,139,135,4095
19.759,160,155,165
19.761,159,159,166
19.764,170,123,144
19.767,146,177,2348
19.769,159,162,143
19.772,157,149,250
19.774,155,156,176
19.776,148,144,946
19.779,146,133,3145
19.782,121,142,3109
19.784,156,175,162
19.788,148,146,142
19.79,171,158,1002
19.792,137,138,1881
19.794,160,153,152
19.798,159,147,157
19.8,166,144,210
19.802,139,134,2478
19.806,131,112,4095
19.808,142,112,176
19.81,162,145,184
19.813,151,151,208
19.815,131,128,3542
19.818,155,160,163
19.821,172,160,175
19.824,151,157,175
19.826,163,144,1874
19.829,135,112,4095
19.832,117,129,2533
19.834,153,144,181
19.836,161,156,176
19.84,147,143,2359
19.842,197,145,462
19.844,149,163,142
19.848,163,165,143
19.85,151,154,1071
19.852,135,129,3353
19.856,130,128,4095
19.858,165,167,165
19.86,154,150,147
19.863,160,151,1531
19.865,129,96,4095
19.867,172,153,176
19.869,148,144,169
19.873,177,160,272
19.875,147,131,2633
19.878,130,118,4095
19.881,128,122,1676
19.883,165,155,181
19.885,145,151,718
19.888,140,137,3464
19.891,144,144,179
19.893,174,158,145
19.896,160,154,167
19.899,144,144,1887
19.901,130,128,4095
19.904,131,133,4095
19.907,145,158,155
19.909,165,145,191
19.912,147,144,2199
19.914,132,134,2837
19.916,149,153,159
19.919,153,147,193
19.921,154,141,1161
19.923,145,129,3601
19.926,116,126,4095
19.93,144,144,326
19.932,159,162,205
19.935,166,144,1479
19.938,134,130,4095
19.941,140,155,170
19.943,162,158,115
19.946,173,145,363
19.949,150,134,2791
19.951,125,135,4095
19.954,135,128,2997
19.957,151,141,180
19.959,147,166,843
19.961,129,141,3554
19.965,144,144,529
19.968,174,158,145
19.971,167,155,176
19.973,144,151,2031
19.976,143,123,4095
19.978,114,125,4095
19.981,155,151,272
19.983,166,162,174
19.985,157,119,2250
19.988,132,122,4095
19.99,155,135,165
19.992,154,157,176
19.995,172,162,1232
19.997,133,126,3698
20.0,113,114,4095
20.002,155,144,944
20.006,161,182,166
20.008,160,145,1444
20.01,126,130,4095
20.014,175,150,259
20.016,159,159,259
20.018,172,159,232
20.022,138,135,2713
20.024,130,128,4095
20.026,126,115,4095
20.029,166,144,177
20.032,146,162,805
20.034,151,139,3187
20.038,137,146,1485
20.041,156,144,154
20.043,162,155,161
20.047,159,144,1984
20.049,128,122,4095
20.051,119,115,4095
20.054,167,170,208
20.057,157,161,168
20.059,147,134,2249
20.061,123,117,4095
20.064,164,167,175
20.066,155,162,186
20.068,155,141,1261
20.071,137,119,3637
20.074,128,128,4095
20.077,149,135,1214
20.08,158,153,203
20.082,144,161,1643
20.084,132,128,4095
20.088,167,160,208
20.09,173,148,160
20.092,153,167,603
20.095,155,132,2096
20.098,138,127,4095
20.1,118,129,4095
20.103,141,109,4095
20.106,129,117,4095
20.108,143,112,4095
20.111,137,114,4095
20.115,126,109,4095
20.117,128,123,4095
20.119,139,110,4095
20.123,148,128,4095
20.125,113,181,4095
20.127,141,112,4095
20.129,128,122,4095
20.132,131,79,4095
20.134,133,115,4095
20.136,116,69,4095
20.14,137,107,4095
20.142,121,139,4095
20.144,134,111,4095
20.148,143,129,4095
20.15,129,112,4095
20.153,103,114,4095
20.156,123,117,4095
20.159,129,117,4095
20.161,130,109,4095
20.164,129,124,4095
20.167,128,118,4095
20.169,134,112,4095
20.172,128,112,4095
20.175,139,112,4095
20.177,129,133,4095
20.179,193,113,4095
20.181,125,116,4095
20.184,125,109,4095
20.187,129,125,4095
20.19,139,112,4095
20.192,131,204,4095
20.195,128,112,4095
20.198,133,112,4095
20.2,132,116,4095
20.202,130,115,4095
20.206,128,144,4095
20.208,128,106,4095
20.21,144,110,4095
20.213,128,123,4095
20.215,126,117,4095
20.217,141,107,4095
20.219,138,87,4095
20.223,142,125,4095
20.226,141,130,4095
20.228,132,74,4095
20.231,137,118,4095
20.233,101,111,4095
20.236,128,100,4095
20.239,123,121,4095
20.241,128,124,4095
20.243,137,107,4095
20.247,137,128,4095
20.249,150,115,4095
20.251,165,113,4095
20.255,136,117,4095
20.257,128,96,4095
20.26,141,111,4095
20.263,130,116,4095
20.265,123,112,4095
20.267,189,113,4095
20.269,125,119,4095
20.273,125,128,4095
20.275,128,115,4095
20.277,98,112,4095
20.28,139,131,4095
20.282,170,123,4095
20.284,154,111,4095
20.288,141,128,4095
20.29,131,121,4095
20.293,140,127,4095
20.296,136,117,4095
20.299,128,115,4095
20.301,137,112,4095
20.304,144,125,4095
20.307,112,113,4095
20.309,128,107,4095
20.313,137,112,4095
20.315,135,121,4095
20.317,142,112,4095
20.319,131,128,4095
20.322,137,116,4095
20.324,141,115,4095
20.326,132,125,4095
20.33,135,112,4095
20.332,112,143,4095
20.335,128,118,4095
20.338,169,121,4095
20.34,95,128,4095
20.342,130,118,4095
20.344,137,119,4095
20.348,128,126,4095
20.35,144,117,4095
20.353,145,113,4095
20.356,112,115,4095
20.358,130,130,4095
20.36,146,125,4095
20.363,185,127,4095
20.365,129,127,4095
20.367,133,117,4095
20.37,132,109,4095
20.373,130,125,4095
20.375,135,114,4095
20.377,191,123,4095
20.38,133,115,4095
20.383,207,119,4095
20.385,108,119,4095
20.388,202,115,4095
20.391,119,122,4095
20.393,96,113,4095
20.396,145,128,4095
20.399,122,128,4095
20.401,139,113,4095
20.404,90,130,4095
20.407,96,114,4095
20.41,154,128,4095
20.413,146,116,4095
20.416,131,117,4095
20.418,128,117,4095
20.421,121,116,4095
20.424,128,125,4095
20.426,136,126,4095
20.429,144,128,4095
20.432,116,139,4095
20.434,107,112,4095
20.436,156,120,4095
20.439,129,130,4095
20.441,125,143,4095
20.443,138,117,4095
20.446,127,113,4095
20.449,135,128,4095
20.451,112,115,4095
20.454,141,128,4095
20.457,138,117,4095
20.459,138,142,4095
20.461,128,118,4095
20.464,208,112,4095
20.466,162,119,4095
20.468,129,129,4095
20.471,137,113,4095
20.473,117,118,4095
20.475,127,109,4095
20.477,138,128,4095
20.481,118,130,4095
20.484,128,118,4095
20.486,121,121,4095
20.489,132,65,4095
20.491,141,128,4095
20.494,135,111,4095
20.496,112,112,4095
20.499,129,126,4095
20.501,150,106,4095
20.503,130,126,4095
20.505,119,112,4095
20.508,112,123,4095
20.51,100,125,4095
20.513,140,117,4095
20.515,144,133,4095
20.518,129,112,4095
20.521,131,119,4095
20.523,128,105,4095
20.526,129,114,4095
20.528,128,111,4095
20.531,181,123,4095
20.533,128,125,4095
20.535,128,125,4095
20.538,131,117,4095
20.54,140,121,4095
20.542,102,126,4095
20.544,147,118,4095
20.548,127,119,4095
20.55,139,112,4095
20.552,124,120,4095
20.556,143,185,4095
20.558,123,121,4095
20.561,161,121,4095
20.564,143,126,4095
20.567,130,177,4095
20.569,128,116,4095
20.571,127,83,4095
20.573,128,117,4095
20.576,101,123,4095
20.578,128,112,4095
20.581,143,113,4095
20.583,64,124,4095
20.586,128,117,4095
20.589,126,124,4095
20.591,187,128,4095
20.594,125,128,4095
20.598,192,113,4095
20.6,128,124,4095
20.602,171,118,4095
20.606,125,111,4095
20.608,142,126,4095
20.61,133,129,4095
20.612,129,113,4095
20.615,127,127,4095
20.617,131,110,4095
20.619,135,110,4095
20.623,133,91,4095
20.625,83,124,4095
20.627,93,122,4095
20.63,135,115,4095
20.633,130,112,4095
20.635,134,122,4095
20.638,139,115,4095
20.641,80,125,4095
20.643,134,105,4095
20.646,127,107,4095
20.649,121,121,4095
20.651,138,110,4095
20.654,128,115,4095
20.657,154,119,4095
20.659,145,119,4095
20.661,139,112,4095
20.665,129,115,4095
20.667,118,122,4095
20.67,133,112,4095
20.672,139,112,4095
20.674,138,111,4095
20.677,150,143,2253
20.68,227,123,3152
20.682,128,125,4095
20.684,196,115,4095
20.688,111,121,4095
20.69,138,144,192
20.692,128,157,164
20.695,162,159,179
20.698,193,133,864
20.7,158,151,154
20.703,162,154,159
20.707,103,143,179
20.709,97,147,192
20.713,173,140,539
20.715,179,146,177
20.717,177,153,147
20.72,167,144,144
20.722,112,158,122
20.724,175,145,174
20.727,151,141,177
20.73,158,144,159
20.732,177,142,176
20.734,104,155,169
20.736,112,150,175
20.739,157,141,165
20.741,181,163,174
20.744,145,135,135
20.748,182,161,176
20.75,160,155,128
20.752,164,134,167
20.756,118,140,148
20.758,112,159,141
20.76,170,112,213
20.763,208,156,124
20.765,158,149,159
20.767,149,154,156
20.769,164,140,163
20.773,177,150,179
20.775,170,143,164
20.778,178,145,171
20.781,190,144,170
20.784,160,146,145
20.786,117,157,186
20.789,161,151,175
20.792,107,155,129
20.794,175,157,149
20.797,141,154,145
20.799,176,135,173
20.802,165,164,166
20.805,164,144,118
20.807,171,144,258
20.81,147,151,145
20.813,170,141,170
20.816,108,150,144
20.818,158,145,170
20.822,160,143,163
20.824,144,158,241
20.826,163,155,166
20.83,171,146,175
20.832,169,151,129
20.835,123,161,154
20.838,148,144,154
20.84,159,167,136
20.843,128,150,177
20.846,159,161,174
20.848,149,143,142
20.851,165,148,157
20.855,205,151,145
20.857,187,145,163
20.859,164,158,167
20.863,120,151,160
20.865,156,141,167
20.867,80,157,167
20.87,112,156,165
20.872,155,141,180
20.874,123,170,176
20.877,112,143,161
20.879,174,145,155
20.881,100,158,148
20.883,242,157,139
20.886,162,144,165
20.89,151,132,147
20.892,176,134,130
20.896,208,144,163
20.899,154,157,159
20.901,162,144,183
20.903,164,155,152
20.906,148,147,160
20.908,154,144,191
20.91,151,144,157
20.913,160,163,185
20.915,117,144,145
20.917,164,144,141
20.919,172,146,167
20.923,163,144,129
20.925,179,153,176
20.928,115,145,160
20.931,173,144,153
20.933,160,144,161
20.935,176,163,144
20.939,115,137,137
20.941,161,201,144
20.943,112,144,159
20.946,172,107,171
20.948,177,208,293
20.95,128,148,159
20.953,179,144,149
20.955,165,165,169
20.958,187,145,150
20.96,159,141,183
20.963,166,159,188
20.965,175,213,144
20.967,159,147,176
20.97,176,145,139
20.972,176,159,156
20.974,161,165,162
20.977,237,144,145
20.979,257,154,192
20.981,160,145,208
20.984,166,112,185
20.986,156,144,142
20.989,221,161,165
20.991,170,144,163
20.993,110,164,157
20.996,174,145,176
20.999,171,167,155
21.001,167,160,144
21.005,176,158,153
21.007,170,140,174
21.01,166,156,140
21.013,176,139,165
21.015,232,160,167
21.017,125,159,160
21.019,145,144,191
21.023,163,180,125
21.025,169,146,159
21.027,176,154,165
21.03,169,214,150
21.032,161,144,166
21.034,175,145,159
21.038,170,165,155
21.04,164,144,163
21.042,105,156,140
21.044,176,161,203
21.048,163,155,151
21.051,180,153,165
21.053,171,145,173
21.056,166,159,166
21.058,244,142,149
21.061,190,154,155
21.064,159,147,162
21.066,129,148,206
21.069,170,160,176
21.071,163,144,160
21.074,176,149,163
21.077,167,143,138
21.08,176,143,178
21.083,166,170,141
21.085,163,156,155
21.088,162,144,150
21.091,155,199,153
21.093,176,141,147
21.097,169,154,171
21.099,176,152,159
21.101,175,114,160
21.104,175,155,144
21.107,165,146,187
21.11,176,155,158
21.113,159,157,163
21.115,171,148,176
21.117,170,148,176
21.12,168,149,181
21.122,142,146,179
21.124,163,155,162
21.127,176,166,221
21.129,162,153,176
21.132,164,151,145
21.134,161,138,126
21.136,174,160,178
21.139,154,144,145
21.141,161,176,162
21.143,123,139,176
21.147,174,158,151
21.15,162,145,172
21.152,171,126,243
21.155,170,147,181
21.157,161,155,160
21.159,174,170,112
21.162,112,149,162
21.165,176,161,156
21.167,176,133,173
21.171,176,146,163
21.173,175,142,169
21.175,241,161,166
21.178,163,161,257
21.181,177,144,176
21.184,150,145,162
21.188,157,155,170
21.191,177,147,176
21.193,157,154,155
21.196,176,159,138
21.199,171,151,149
21.201,173,157,162
21.203,167,147,162
21.206,157,166,156
21.208,160,145,174
21.21,176,128,173
21.213,170,144,160
21.215,161,147,73
21.217,176,203,164
21.221,162,158,147
21.224,183,167,144
21.227,169,144,151
21.23,167,174,161
21.232,165,153,170
21.234,167,163,193
21.238,157,144,161
21.241,171,151,176
21.243,170,158,240
21.246,170,151,113
21.249,179,145,176
21.251,173,162,175
21.254,183,155,144
21.257,166,155,156
21.26,133,161,169
21.263,160,151,145
21.265,168,163,140
21.268,160,155,135
21.271,177,133,158
21.274,171,170,155
21.276,171,139,155
21.279,173,144,158
21.282,163,147,143
21.284,178,166,187
21.286,165,146,191
21.289,163,124,181
21.291,169,146,136
21.294,176,165,150
21.298,160,157,154
21.3,176,145,176
21.303,172,165,157
21.306,176,170,145
21.308,163,149,144
21.31,166,161,143
21.313,178,146,185
21.315,165,151,160
21.317,157,144,179
21.321,180,192,201
21.324,183,147,175
21.326,176,143,158
21.329,189,146,162
21.333,173,150,144
21.335,176,221,142
21.338,161,144,176
21.34,168,150,165
21.343,174,206,188
21.346,161,151,176
21.349,167,146,174
21.351,157,160,179
21.354,183,156,176
21.357,173,141,190
21.359,180,143,160
21.363,173,199,142
21.366,173,210,153
21.368,156,155,165
21.372,171,160,181
21.374,157,154,166
21.376,176,150,145
21.379,186,136,158
21.382,179,165,181
21.384,176,149,153
21.386,166,138,173
21.389,172,146,159
21.391,176,153,187
21.393,169,151,174
21.396,161,149,152
21.399,176,173,166
21.401,176,157,150
21.404,179,145,171
21.407,176,151,179
21.41,179,161,171
21.413,187,156,153
21.416,172,148,176
