time,emg
0.5087440013885498,696.0
0.5164239406585693,699.0
0.5214500427246094,703.0
0.5254020690917969,703.0
0.5344510078430176,707.0
0.5404438972473145,709.0
0.5449938774108887,703.0
0.5507979393005371,711.0
0.5579209327697754,712.0
0.5625250339508057,705.0
0.5669641494750977,708.0
0.5747008323669434,702.0
0.5803191661834717,707.0
0.5857839584350586,701.0
0.590644121170044,704.0
0.595526933670044,679.0
0.6003749370574951,696.0
0.6083080768585205,691.0
0.613919734954834,669.0
0.6186490058898926,665.0
0.6234619617462158,672.0
0.6300649642944336,688.0
0.638617992401123,693.0
0.6437110900878906,692.0
0.6484789848327637,706.0
0.6532471179962158,702.0
0.6576888561248779,693.0
0.6623029708862305,696.0
0.6666388511657715,706.0
0.671205997467041,697.0
0.6760969161987305,696.0
0.6831760406494141,696.0
0.6877620220184326,695.0
0.6925868988037109,694.0
0.6999571323394775,691.0
0.7043519020080566,698.0
0.7082741260528564,691.0
0.713068962097168,691.0
0.7179050445556641,701.0
0.7254281044006348,674.0
0.7330179214477539,678.0
0.7380609512329102,694.0
0.742595911026001,684.0
0.7467470169067383,694.0
0.751093864440918,692.0
0.7585139274597168,681.0
0.7663147449493408,691.0
0.7719588279724121,693.0
0.7773740291595459,672.0
0.782243013381958,694.0
0.7870450019836426,676.0
0.7914028167724609,694.0
0.7967851161956787,681.0
0.8021750450134277,679.0
0.8070409297943115,692.0
0.8136439323425293,702.0
0.8184249401092529,703.0
0.822472095489502,699.0
0.8294780254364014,709.0
0.8348429203033447,708.0
0.8390281200408936,701.0
0.8466668128967285,701.0
0.852057933807373,701.0
0.8575880527496338,705.0
0.8621280193328857,702.0
0.8680448532104492,703.0
0.8728530406951904,704.0
0.8793590068817139,706.0
0.8847088813781738,708.0
0.8893148899078369,708.0
0.8935799598693848,703.0
0.8981330394744873,689.0
0.9044649600982666,700.0
0.91007399559021,704.0
0.9143891334533691,675.0
0.9212379455566406,678.0
0.9266159534454346,708.0
0.9311168193817139,706.0
0.935222864151001,686.0
0.9394199848175049,716.0
0.9434049129486084,718.0
0.9474999904632568,683.0
0.9520180225372314,707.0
0.9567780494689941,710.0
0.9634678363800049,703.0
0.9682457447052002,688.0
0.9729459285736084,699.0
0.9799709320068359,697.0
0.9853389263153076,698.0
0.9898500442504883,702.0
0.9968478679656982,701.0
1.0022590160369873,695.0
1.0071468353271484,698.0
1.0138390064239502,691.0
1.0218241214752197,690.0
1.0271451473236084,692.0
1.0330829620361328,681.0
1.0376238822937012,694.0
1.0430099964141846,691.0
1.0479850769042969,691.0
1.052832841873169,696.0
1.0579910278320312,666.0
1.0627307891845703,695.0
1.0680820941925049,688.0
1.0726909637451172,686.0
1.0775058269500732,669.0
1.0831258296966553,687.0
1.0877480506896973,687.0
1.0927760601043701,680.0
1.0977509021759033,688.0
1.102813959121704,670.0
1.107922077178955,691.0
1.113205909729004,688.0
1.1186778545379639,689.0
1.1239349842071533,690.0
1.1284019947052002,667.0
1.1327838897705078,686.0
1.1381120681762695,690.0
1.1432631015777588,691.0
1.148036003112793,691.0
1.1552670001983643,695.0
1.1633269786834717,690.0
1.1690459251403809,697.0
1.1738710403442383,675.0
1.17942214012146,702.0
1.1843769550323486,694.0
1.1917200088500977,696.0
1.196516990661621,696.0
1.200773000717163,673.0
1.2084298133850098,698.0
1.213796854019165,698.0
1.2191619873046875,700.0
1.2238309383392334,701.0
1.2294838428497314,698.0
1.2343699932098389,679.0
1.2393150329589844,704.0
1.243661880493164,701.0
1.2492780685424805,702.0
1.2543299198150635,701.0
1.2594530582427979,703.0
1.2667429447174072,707.0
1.2712211608886719,690.0
1.2752001285552979,692.0
1.282979965209961,715.0
1.2876918315887451,713.0
1.2925610542297363,709.0
1.299191951751709,712.0
1.3047308921813965,712.0
1.3101379871368408,681.0
1.3149769306182861,688.0
1.3216898441314697,692.0
1.3264179229736328,710.0
1.33107590675354,691.0
1.3350658416748047,714.0
1.3398640155792236,687.0
1.3472809791564941,715.0
1.3549258708953857,709.0
1.3604109287261963,710.0
1.366373062133789,714.0
1.3709869384765625,708.0
1.376121997833252,711.0
1.3806800842285156,681.0
1.3852119445800781,704.0
1.390942096710205,703.0
1.396003007888794,701.0
1.4010400772094727,675.0
1.4093599319458008,701.0
1.4141709804534912,697.0
1.4186668395996094,695.0
1.4233338832855225,695.0
1.4303200244903564,697.0
1.4382128715515137,696.0
1.4435229301452637,686.0
1.4477529525756836,691.0
1.4519131183624268,680.0
1.456808090209961,694.0
1.4615840911865234,690.0
1.466407060623169,688.0
1.4713950157165527,690.0
1.476276159286499,683.0
1.4833040237426758,691.0
1.4879789352416992,689.0
1.4919838905334473,692.0
1.499946117401123,698.0
1.505025863647461,690.0
1.5096709728240967,679.0
1.5169517993927002,690.0
1.5244948863983154,690.0
1.5291481018066406,686.0
1.5332050323486328,696.0
1.5379118919372559,688.0
1.5427448749542236,687.0
1.5498080253601074,691.0
1.5542280673980713,686.0
1.5581448078155518,683.0
1.5627679824829102,683.0
1.5677390098571777,674.0
1.5748498439788818,688.0
1.5798699855804443,688.0
1.5845520496368408,682.0
1.5924901962280273,695.0
1.6003830432891846,693.0
1.6094660758972168,702.0
1.6171259880065918,692.0
1.6220729351043701,697.0
1.6262359619140625,693.0
1.6337220668792725,693.0
1.6416049003601074,695.0
1.647258996963501,684.0
1.6517248153686523,694.0
1.6576411724090576,702.0
1.6623048782348633,701.0
1.6674940586090088,710.0
1.6752779483795166,701.0
1.6826770305633545,697.0
1.6881041526794434,698.0
1.6935749053955078,698.0
1.6985599994659424,694.0
1.7063148021697998,692.0
1.7122859954833984,692.0
1.7166721820831299,689.0
1.7219181060791016,689.0
1.726869821548462,691.0
1.7318639755249023,691.0
1.7366938591003418,697.0
1.7411038875579834,704.0
1.746716022491455,702.0
1.7511498928070068,687.0
1.7564260959625244,705.0
1.763852834701538,683.0
1.7720839977264404,707.0
1.7768759727478027,705.0
1.781674861907959,706.0
1.7859418392181396,716.0
1.7904748916625977,684.0
1.7953660488128662,702.0
1.7997419834136963,709.0
1.8051929473876953,706.0
1.8095571994781494,676.0
1.8176910877227783,697.0
1.825145959854126,691.0
1.8305387496948242,674.0
1.8359508514404297,690.0
1.8408620357513428,667.0
1.8462390899658203,691.0
1.851064920425415,687.0
1.8579800128936768,668.0
1.862865924835205,687.0
1.867093801498413,689.0
1.8745708465576172,696.0
1.8789300918579102,691.0
1.8832769393920898,692.0
1.8884999752044678,691.0
1.8931879997253418,673.0
1.8976929187774658,693.0
1.9020400047302246,685.0
1.906883955001831,692.0
1.9136998653411865,687.0
1.9185760021209717,690.0
1.9244680404663086,664.0
1.9289131164550781,673.0
1.9328868389129639,687.0
1.9382290840148926,680.0
1.9426400661468506,689.0
1.9503459930419922,666.0
1.9586598873138428,675.0
1.9663488864898682,679.0
1.9716949462890625,668.0
1.9771060943603516,678.0
1.9819328784942627,692.0
1.9892709255218506,692.0
1.9969580173492432,692.0
2.0024311542510986,689.0
2.0080840587615967,670.0
2.01305890083313,683.0
2.017899990081787,696.0
2.0227527618408203,684.0
2.027143955230713,699.0
2.0330710411071777,685.0
2.038872003555298,690.0
2.0431058406829834,677.0
2.0483438968658447,681.0
2.055116891860962,691.0
2.059875965118408,707.0
2.0649330615997314,710.0
2.072474956512451,686.0
2.0798799991607666,709.0
2.0847740173339844,692.0
2.0918381214141846,706.0
2.0971009731292725,710.0
2.1012229919433594,711.0
2.109818935394287,704.0
2.115769863128662,706.0
2.120501756668091,706.0
2.126451015472412,707.0
2.131300926208496,705.0
2.1389238834381104,691.0
2.146939992904663,706.0
2.15236496925354,708.0
2.1580891609191895,704.0
2.1633520126342773,707.0
2.167849063873291,704.0
2.1750569343566895,706.0
2.1799509525299072,710.0
2.1841399669647217,707.0
2.191767930984497,709.0
2.196854829788208,715.0
2.201946973800659,691.0
2.207594156265259,721.0
2.2129719257354736,721.0
2.2178452014923096,697.0
2.2252349853515625,714.0
2.2336108684539795,687.0
2.2418899536132812,711.0
2.250176191329956,682.0
2.2555439472198486,707.0
2.2609949111938477,704.0
2.265810012817383,704.0
2.271311044692993,686.0
2.2762880325317383,678.0
2.281707763671875,699.0
2.287285089492798,694.0
2.2914929389953613,697.0
2.297546148300171,700.0
2.305222988128662,695.0
2.313398838043213,692.0
2.318603992462158,703.0
2.3229000568389893,696.0
2.327017068862915,684.0
2.3316009044647217,695.0
2.3389270305633545,697.0
2.347572088241577,696.0
2.355679750442505,667.0
2.3635730743408203,693.0
2.3721868991851807,689.0
2.379983901977539,699.0
2.3856489658355713,693.0
2.391429901123047,686.0
2.3971328735351562,701.0
2.401637077331543,695.0
2.4061357975006104,691.0
2.4139339923858643,690.0
2.422086000442505,693.0
2.4304537773132324,692.0
2.4377617835998535,693.0
2.4431488513946533,689.0
2.4491260051727295,693.0
2.453948974609375,691.0
2.4587528705596924,695.0
2.466540813446045,691.0
2.472341775894165,697.0
2.477550983428955,701.0
2.482473134994507,696.0
2.4869539737701416,699.0
2.4916958808898926,685.0
2.4969639778137207,701.0
2.501629114151001,707.0
2.5065970420837402,708.0
2.514173984527588,708.0
2.5224270820617676,710.0
2.5304601192474365,705.0
2.538486957550049,702.0
2.543365955352783,700.0
2.5476179122924805,713.0
2.5515639781951904,704.0
2.5593669414520264,695.0
2.5641708374023438,703.0
2.568281888961792,708.0
2.5771520137786865,708.0
2.583069086074829,706.0
2.589109182357788,685.0
2.5941238403320312,682.0
2.599036931991577,679.0
2.6033549308776855,693.0
2.608139991760254,699.0
2.6142148971557617,679.0
2.621886968612671,701.0
2.6268539428710938,705.0
2.631088972091675,682.0
2.6351609230041504,688.0
2.639385938644409,697.0
2.643432140350342,683.0
2.648366928100586,716.0
2.6556339263916016,716.0
2.661986827850342,717.0
2.66644287109375,719.0
2.6718711853027344,696.0
2.6760048866271973,711.0
2.6834049224853516,712.0
2.6888890266418457,708.0
2.6943399906158447,690.0
2.6992480754852295,702.0
2.703856945037842,698.0
2.709770917892456,698.0
2.7147648334503174,696.0
2.7218410968780518,691.0
2.7266950607299805,694.0
2.731933116912842,692.0
2.7399210929870605,696.0
2.7459499835968018,694.0
2.751018762588501,693.0
2.7581191062927246,695.0
2.763028144836426,693.0
2.767749071121216,678.0
2.7724099159240723,685.0
2.7767179012298584,700.0
2.7812278270721436,696.0
2.78843092918396,691.0
2.793300151824951,702.0
2.7985661029815674,694.0
2.8035130500793457,704.0
2.807892084121704,699.0
2.8129618167877197,696.0
2.817695140838623,695.0
2.826266050338745,705.0
2.832415819168091,702.0
2.8370468616485596,701.0
2.8414080142974854,696.0
2.8467609882354736,696.0
2.852154016494751,695.0
2.8572518825531006,693.0
2.8643758296966553,693.0
2.8699028491973877,692.0
2.874436855316162,703.0
2.879060983657837,697.0
2.8832428455352783,694.0
2.8885700702667236,705.0
2.893126964569092,697.0
2.898087978363037,680.0
2.904942035675049,702.0
2.9099280834198,706.0
2.9149630069732666,689.0
2.9219319820404053,704.0
2.927438974380493,711.0
2.9330620765686035,706.0
2.9379260540008545,696.0
2.942996025085449,698.0
2.947861909866333,701.0
2.955122947692871,704.0
2.9602839946746826,703.0
2.9647340774536133,705.0
2.971708059310913,713.0
2.976663827896118,707.0
2.981520891189575,715.0
2.9885449409484863,712.0
2.993962049484253,712.0
2.999711751937866,705.0
3.004251003265381,716.0
3.009351968765259,707.0
3.0163328647613525,715.0
3.021022081375122,687.0
3.0250189304351807,711.0
3.0295560359954834,688.0
3.0344560146331787,711.0
3.042055130004883,713.0
3.0493359565734863,700.0
3.0547537803649902,704.0
3.060260057449341,712.0
3.0651049613952637,716.0
3.0720460414886475,720.0
3.077122926712036,707.0
3.081757068634033,717.0
3.088510036468506,708.0
3.093205213546753,719.0
3.097928047180176,713.0
3.105478048324585,694.0
3.1130211353302,710.0
3.118095874786377,706.0
3.122313976287842,680.0
3.126718044281006,700.0
3.131553888320923,697.0
3.138381004333496,699.0
3.143592119216919,696.0
3.1479439735412598,706.0
3.1520910263061523,674.0
3.15700101852417,699.0
3.164294958114624,699.0
3.1715810298919678,700.0
3.1770389080047607,697.0
3.1826319694519043,705.0
3.1877331733703613,673.0
3.192591905593872,685.0
3.1998519897460938,697.0
3.204519033432007,700.0
3.2084310054779053,696.0
3.213073968887329,696.0
3.2182071208953857,696.0
3.2230679988861084,705.0
3.230067014694214,701.0
3.234754800796509,702.0
3.2395780086517334,689.0
3.2467517852783203,704.0
3.252242088317871,683.0
3.2580790519714355,696.0
3.2631990909576416,704.0
3.267669916152954,697.0
3.2748939990997314,683.0
3.279810905456543,697.0
3.284608840942383,679.0
3.29258394241333,704.0
3.299774169921875,697.0
3.304877996444702,697.0
3.3093788623809814,673.0
3.317052125930786,704.0
3.321962833404541,704.0
3.3261499404907227,701.0
3.3334097862243652,711.0
3.33884596824646,710.0
3.346759080886841,711.0
3.3522469997406006,713.0
3.356501817703247,707.0
3.363101005554199,710.0
3.368360996246338,709.0
3.3725757598876953,683.0
3.379812002182007,706.0
3.385322093963623,707.0
3.3913791179656982,703.0
3.395777940750122,710.0
3.4008960723876953,689.0
3.407508134841919,712.0
3.411882162094116,691.0
3.4156250953674316,713.0
3.420090913772583,707.0
3.4264438152313232,704.0
3.431195020675659,706.0
3.4355480670928955,713.0
3.4405248165130615,710.0
3.44541597366333,713.0
3.451465129852295,708.0
3.456350088119507,689.0
3.4638428688049316,711.0
3.471306085586548,720.0
3.4767367839813232,713.0
3.482630968093872,712.0
3.4875009059906006,718.0
3.4926109313964844,718.0
3.4997777938842773,711.0
3.5042319297790527,711.0
3.508279800415039,719.0
3.5128819942474365,714.0
3.5178818702697754,701.0
3.5227248668670654,702.0
3.527094841003418,680.0
3.531825065612793,701.0
3.5372610092163086,707.0
3.5424318313598633,706.0
3.5494699478149414,681.0
3.5543570518493652,682.0
3.5584170818328857,694.0
3.562983989715576,698.0
3.568134069442749,701.0
3.5724990367889404,674.0
3.57978892326355,695.0
3.585034132003784,697.0
3.5894789695739746,697.0
3.593874931335449,694.0
3.59808087348938,698.0
3.6047608852386475,699.0
3.609605073928833,696.0
3.6176950931549072,695.0
3.625365972518921,697.0
3.632646083831787,692.0
3.636096954345703,696.0
3.640523910522461,696.0
3.6476199626922607,671.0
3.655310869216919,691.0
3.660780906677246,695.0
3.6664469242095947,672.0
3.671333074569702,703.0
3.67610502243042,689.0
3.6835649013519287,691.0
3.691039800643921,693.0
3.696398973464966,668.0
3.70188307762146,674.0
3.7067580223083496,697.0
3.7139947414398193,695.0
3.721414089202881,690.0
3.7269458770751953,699.0
3.7326250076293945,698.0
3.7375330924987793,696.0
3.7426609992980957,704.0
3.750112771987915,716.0
3.7548089027404785,708.0
3.7590041160583496,695.0
3.766695976257324,706.0
3.772141933441162,711.0
3.7776339054107666,709.0
3.782459020614624,711.0
3.787274122238159,711.0
3.793088912963867,708.0
3.7980499267578125,705.0
3.8045270442962646,703.0
3.809319019317627,711.0
3.8164989948272705,707.0
3.8197879791259766,681.0
3.8237709999084473,704.0
3.8282809257507324,710.0
3.8331220149993896,688.0
3.8378567695617676,712.0
3.842985153198242,692.0
3.847951889038086,706.0
3.854912757873535,689.0
3.8601491451263428,703.0
3.864382028579712,706.0
3.8709490299224854,692.0
3.8754048347473145,708.0
3.8823928833007812,713.0
3.8878390789031982,697.0
3.893282890319824,695.0
3.8981900215148926,718.0
3.9053049087524414,707.0
3.910839796066284,719.0
3.915818929672241,703.0
3.9206719398498535,711.0
3.9253721237182617,707.0
3.9333038330078125,697.0
3.939005136489868,706.0
3.943898916244507,702.0
3.9497480392456055,685.0
3.954782009124756,702.0
3.959385871887207,699.0
3.966155767440796,676.0
3.970566987991333,698.0
3.974447011947632,667.0
3.979041814804077,697.0
3.984127998352051,683.0
3.9911890029907227,671.0
3.995788812637329,692.0
3.9999351501464844,700.0
4.005254030227661,672.0
4.009940147399902,699.0
4.014472961425781,674.0
4.021730899810791,695.0
4.026569128036499,699.0
4.030832052230835,704.0
4.035116910934448,684.0
4.040028095245361,689.0
4.046680927276611,696.0
4.052206993103027,696.0
4.057175874710083,674.0
4.0616748332977295,701.0
4.06601095199585,691.0
4.070637941360474,674.0
4.074588060379028,695.0
4.079168796539307,696.0
4.084273099899292,698.0
4.091572046279907,691.0
4.096045970916748,707.0
4.10004997253418,697.0
4.104444980621338,690.0
4.1095290184021,699.0
4.117069959640503,700.0
4.124912977218628,706.0
4.13027811050415,709.0
4.135656118392944,700.0
4.140575170516968,709.0
4.146020889282227,702.0
4.150793075561523,693.0
4.158051013946533,702.0
4.163172006607056,693.0
4.167488098144531,711.0
4.174468994140625,703.0
4.179733753204346,689.0
4.184490919113159,709.0
4.189136028289795,706.0
4.196342945098877,716.0
4.201770782470703,709.0
4.207604169845581,693.0
4.212072134017944,710.0
4.216425180435181,692.0
4.221792936325073,716.0
4.227165937423706,716.0
4.231950044631958,704.0
4.237334966659546,719.0
4.2424280643463135,709.0
4.249583959579468,684.0
4.254166841506958,706.0
4.258341073989868,686.0
4.262824058532715,709.0
4.267944097518921,710.0
4.276057004928589,721.0
4.280463933944702,726.0
4.2846360206604,719.0
4.292565822601318,701.0
4.299722909927368,726.0
4.304451942443848,715.0
4.308544158935547,717.0
4.315907955169678,705.0
4.320994853973389,718.0
4.325109004974365,710.0
4.329722881317139,715.0
4.334084987640381,713.0
4.341549873352051,710.0
4.346712827682495,710.0
4.351346015930176,707.0
4.355674982070923,708.0
4.359930038452148,686.0
4.364360094070435,709.0
4.368332862854004,705.0
4.373217821121216,705.0
4.379997968673706,700.0
4.385432958602905,707.0
4.38967490196228,701.0
4.3965442180633545,707.0
4.40224289894104,700.0
4.407210826873779,711.0
4.411575794219971,701.0
4.415678024291992,683.0
4.419989109039307,694.0
4.424046993255615,703.0
4.431196928024292,705.0
4.436250925064087,691.0
4.440773010253906,705.0
4.4472270011901855,710.0
4.454643964767456,687.0
4.4600419998168945,703.0
4.465951919555664,678.0
4.470605850219727,690.0
4.475472927093506,702.0
4.483180999755859,697.0
4.488138914108276,706.0
4.492371082305908,699.0
4.5001060962677,702.0
4.505569934844971,694.0
4.511013031005859,701.0
4.5158538818359375,700.0
4.520327091217041,705.0
4.526449918746948,702.0
4.531308889389038,711.0
4.538595914840698,702.0
4.543532848358154,705.0
4.547773122787476,690.0
4.551898956298828,708.0
4.556394100189209,685.0
4.563111066818237,713.0
4.568455934524536,708.0
4.573030948638916,721.0
4.580216884613037,709.0
4.587779998779297,713.0
4.593016862869263,713.0
4.597445964813232,710.0
4.601656913757324,715.0
4.606472015380859,710.0
4.613440036773682,705.0
4.618739128112793,713.0
4.623269081115723,713.0
4.629968881607056,706.0
4.634767055511475,705.0
4.639570951461792,697.0
4.646759033203125,710.0
4.652310848236084,711.0
4.658098936080933,708.0
4.663104057312012,714.0
4.66772198677063,714.0
4.6749420166015625,719.0
4.6795830726623535,714.0
4.684321880340576,719.0
4.6917359828948975,707.0
4.694874048233032,694.0
4.69917893409729,722.0
4.70391583442688,693.0
4.708384990692139,719.0
4.712937116622925,728.0
4.718016147613525,705.0
4.725998878479004,716.0
4.734467029571533,716.0
4.741748094558716,697.0
4.7466888427734375,708.0
4.7511420249938965,692.0
4.758342981338501,706.0
4.763285160064697,697.0
4.7674078941345215,702.0
4.774971008300781,698.0
4.7803380489349365,699.0
4.7858569622039795,704.0
4.790514945983887,677.0
4.795845985412598,695.0
4.800945997238159,701.0
4.80819296836853,702.0
4.812842845916748,701.0
4.8175048828125,700.0
4.825207948684692,702.0
4.833005905151367,701.0
4.837299108505249,707.0
4.841150999069214,695.0
4.8457958698272705,683.0
4.851401090621948,698.0
4.858643054962158,692.0
4.865819931030273,689.0
4.87132716178894,702.0
4.8767828941345215,694.0
4.881685018539429,694.0
4.888540029525757,696.0
4.89382004737854,692.0
4.898035049438477,667.0
4.904704809188843,693.0
4.91030478477478,688.0
4.91509485244751,690.0
4.919802904129028,699.0
4.923666000366211,689.0
4.928491830825806,668.0
4.932713985443115,698.0
4.937172174453735,702.0
4.941992998123169,706.0
4.950101137161255,710.0
4.955014944076538,710.0
4.959985971450806,717.0
4.964699029922485,707.0
4.971343994140625,710.0
4.976954936981201,714.0
4.9826109409332275,720.0
4.987149953842163,690.0
4.992011785507202,695.0
4.999550104141235,716.0
5.004421949386597,713.0
5.009226083755493,707.0
5.016786098480225,714.0
5.0221641063690186,709.0
5.027590990066528,685.0
5.032405138015747,710.0
5.038957834243774,711.0
5.043956995010376,717.0
5.048403024673462,718.0
5.055459022521973,709.0
5.063039064407349,718.0
5.068585157394409,715.0
5.074270009994507,723.0
5.079168796539307,717.0
5.084117889404297,718.0
5.090902805328369,700.0
5.0955119132995605,716.0
5.09994101524353,716.0
5.1042799949646,722.0
5.109225034713745,723.0
5.116490840911865,700.0
5.121505975723267,724.0
5.1259050369262695,723.0
5.133729934692383,736.0
5.141826868057251,727.0
5.14927077293396,726.0
5.154944181442261,727.0
5.160382032394409,702.0
5.165249824523926,723.0
5.171616792678833,718.0
5.176517009735107,724.0
5.180703163146973,714.0
5.185070991516113,718.0
5.189939022064209,704.0
5.196671009063721,698.0
5.201978921890259,712.0
5.206498861312866,712.0
5.213465929031372,715.0
5.2184929847717285,718.0
5.223550081253052,702.0
5.22842001914978,712.0
5.23292875289917,705.0
5.237519979476929,705.0
5.241544961929321,706.0
5.245695114135742,715.0
5.25077486038208,704.0
5.257748126983643,687.0
5.262443780899048,684.0
5.266161918640137,715.0
5.2703938484191895,715.0
5.274908065795898,717.0
5.280491828918457,714.0
5.284865856170654,710.0
5.290846109390259,710.0
5.295270919799805,712.0
5.29979395866394,711.0
5.305253028869629,714.0
5.309873104095459,713.0
5.31601095199585,691.0
5.320380926132202,703.0
5.324767112731934,703.0
5.3301708698272705,707.0
5.334789991378784,707.0
5.340737819671631,698.0
5.347089052200317,708.0
5.351989030838013,684.0
5.355967998504639,711.0
5.360320806503296,707.0
5.365308046340942,686.0
5.369874954223633,716.0
5.3762290477752686,691.0
5.383110046386719,710.0
5.387814044952393,715.0
5.39192795753479,713.0
5.399275779724121,714.0
5.404991149902344,691.0
5.410207748413086,715.0
5.415111064910889,716.0
5.42029595375061,717.0
5.42483115196228,726.0
5.430328845977783,719.0
5.435461044311523,731.0
5.440335988998413,708.0
5.445019960403442,720.0
5.449792861938477,715.0
5.455236911773682,717.0
5.459923982620239,715.0
5.4653160572052,716.0
5.472052097320557,691.0
5.476916074752808,708.0
5.4810099601745605,713.0
5.48535680770874,719.0
5.4902119636535645,704.0
5.494711875915527,718.0
5.500938892364502,717.0
5.507438898086548,710.0
5.511651992797852,706.0
5.515350818634033,720.0
5.520410060882568,732.0
5.5248119831085205,721.0
5.530200004577637,727.0
5.53510594367981,720.0
5.540024995803833,725.0
5.54510498046875,714.0
5.54977011680603,721.0
5.555147886276245,713.0
5.559968948364258,721.0
5.5648229122161865,698.0
5.571364879608154,709.0
5.5762248039245605,710.0
5.58365797996521,711.0
5.5911571979522705,709.0
5.5968217849731445,690.0
5.601461887359619,707.0
5.607467889785767,708.0
5.612297058105469,708.0
5.617410898208618,707.0
5.62480902671814,678.0
5.629563093185425,694.0
5.633573055267334,711.0
5.6405930519104,715.0
5.644979953765869,706.0
5.649322748184204,713.0
5.653493165969849,716.0
5.657589912414551,720.0
5.66225004196167,722.0
5.667436838150024,726.0
5.674485206604004,716.0
5.678956985473633,712.0
5.682836055755615,694.0
5.6871960163116455,701.0
5.692063093185425,693.0
5.69953179359436,703.0
5.703912019729614,687.0
5.707924127578735,697.0
5.711977005004883,704.0
5.716645002365112,707.0
5.72232985496521,707.0
5.726887941360474,707.0
5.7317259311676025,694.0
5.7385759353637695,712.0
5.743469953536987,710.0
5.747715950012207,717.0
5.752169132232666,718.0
5.757014989852905,721.0
5.76176905632019,719.0
5.76802396774292,727.0
5.775170803070068,718.0
5.779752016067505,716.0
5.784514904022217,716.0
5.791651964187622,718.0
5.797108173370361,716.0
5.802645206451416,717.0
5.807538032531738,722.0
5.812494993209839,721.0
5.817573070526123,711.0
5.82473087310791,728.0
5.8291099071502686,704.0
5.833044052124023,725.0
5.837677001953125,733.0
5.842742919921875,719.0
5.84760594367981,726.0
5.851989030838013,719.0
5.85764217376709,704.0
5.862864971160889,718.0
5.868036985397339,708.0
5.874598979949951,713.0
5.879042863845825,719.0
5.883478879928589,719.0
5.887821912765503,725.0
5.8928868770599365,705.0
5.8993449211120605,707.0
5.90391206741333,719.0
5.908327102661133,731.0
5.91317892074585,724.0
5.917924880981445,699.0
5.925179958343506,724.0
5.929641008377075,731.0
5.933761835098267,721.0
5.940648078918457,716.0
5.945497989654541,717.0
5.949796915054321,721.0
5.954013109207153,714.0
5.957963943481445,719.0
5.9625561237335205,711.0
5.967713832855225,695.0
5.97481894493103,708.0
5.978982925415039,711.0
5.983036041259766,686.0
5.987605810165405,686.0
5.992492914199829,706.0
5.999626159667969,705.0
6.004522085189819,716.0
6.008746147155762,706.0
6.01598596572876,705.0
6.020234107971191,712.0
6.0242578983306885,700.0
6.030832052230835,704.0
6.037648916244507,700.0
6.043116807937622,706.0
6.048624038696289,708.0
6.05339503288269,707.0
6.058115005493164,704.0
6.063517093658447,709.0
6.068138122558594,687.0
6.074141979217529,703.0
6.078625917434692,711.0
6.083115816116333,698.0
6.088538885116577,699.0
6.093074083328247,710.0
6.10007905960083,695.0
6.10451602935791,697.0
6.108398914337158,699.0
6.113480091094971,703.0
6.118125915527344,705.0
6.123873949050903,705.0
6.128387928009033,712.0
6.133130073547363,709.0
6.138619899749756,685.0
6.143280982971191,711.0
6.148806095123291,708.0
6.153472185134888,717.0
6.158120155334473,696.0
6.16363000869751,715.0
6.168195009231567,711.0
6.174211025238037,719.0
6.178847789764404,719.0
6.183727025985718,698.0
6.191082954406738,714.0
6.195436954498291,712.0
6.199492931365967,713.0
6.203562021255493,710.0
6.2084879875183105,717.0
6.213120222091675,715.0
6.21855092048645,701.0
6.223410129547119,714.0
6.228111028671265,712.0
6.234357833862305,719.0
6.241408824920654,715.0
6.245706081390381,698.0
6.249619960784912,716.0
6.253641128540039,713.0
6.258275985717773,707.0
6.26394510269165,716.0
6.268688917160034,722.0
6.273200988769531,717.0
6.279978036880493,699.0
6.285011053085327,726.0
6.289291858673096,723.0
6.2936201095581055,721.0
6.2984700202941895,730.0
6.303053855895996,724.0
6.309319972991943,700.0
6.31618595123291,717.0
6.320636987686157,716.0
6.324697017669678,715.0
6.328638076782227,714.0
6.333138942718506,685.0
6.338792085647583,710.0
6.3436057567596436,703.0
6.348447799682617,710.0
6.355599880218506,704.0
6.360690116882324,707.0
6.365246057510376,702.0
6.371521949768066,712.0
6.377049922943115,703.0
6.381590843200684,704.0
6.388407945632935,707.0
6.393909931182861,685.0
6.39976692199707,702.0
6.404152870178223,701.0
6.409258127212524,699.0
6.415874004364014,676.0
6.420104026794434,701.0
6.424789190292358,699.0
6.42926812171936,705.0
6.4344611167907715,696.0
6.441277027130127,700.0
6.445530891418457,700.0
6.44919490814209,711.0
6.455589056015015,681.0
6.462738037109375,701.0
6.4682457447052,696.0
6.472722053527832,696.0
6.479671001434326,697.0
6.485054969787598,706.0
6.491004943847656,700.0
6.495654106140137,684.0
6.500756025314331,696.0
6.507756948471069,698.0
6.51246190071106,700.0
6.5166308879852295,703.0
6.520945072174072,704.0
6.526090860366821,712.0
6.53269100189209,706.0
6.539331912994385,691.0
6.5460450649261475,711.0
6.551508188247681,702.0
6.558156967163086,709.0
6.562549114227295,684.0
6.567672967910767,714.0
6.574678897857666,707.0
6.579824924468994,716.0
6.5845489501953125,710.0
6.592117071151733,711.0
6.598160982131958,708.0
6.604492902755737,697.0
6.609642028808594,709.0
6.613924026489258,710.0
6.617994785308838,684.0
6.625280857086182,708.0
6.633125066757202,706.0
6.638577938079834,704.0
6.644003868103027,683.0
6.648589849472046,710.0
6.653994083404541,707.0
6.659143924713135,704.0
6.666372060775757,686.0
6.6708900928497314,704.0
6.674911022186279,702.0
6.680092096328735,684.0
6.684685945510864,709.0
6.691413879394531,712.0
6.69638991355896,685.0
6.701008081436157,711.0
6.707612037658691,709.0
6.712491989135742,713.0
6.71644401550293,712.0
6.720494031906128,709.0
6.7245399951934814,714.0
6.729143857955933,690.0
6.734276056289673,709.0
6.741405010223389,706.0
6.745739936828613,679.0
6.749938011169434,699.0
6.754642009735107,697.0
6.759671926498413,696.0
6.764539957046509,692.0
6.771389961242676,692.0
6.7766029834747314,692.0
6.781119108200073,701.0
6.785431861877441,691.0
6.78974986076355,700.0
6.796236991882324,686.0
6.801674842834473,674.0
6.805895090103149,693.0
6.812700986862183,677.0
6.817525148391724,697.0
6.824312925338745,677.0
6.82964015007019,698.0
6.8350889682769775,695.0
6.839925765991211,675.0
6.846902847290039,676.0
6.852185010910034,696.0
6.856449842453003,701.0
6.863168001174927,704.0
6.8684399127960205,697.0
6.872535943984985,706.0
6.87712287902832,702.0
6.881502151489258,691.0
6.887912034988403,708.0
6.892128944396973,702.0
6.898975849151611,703.0
6.905061960220337,700.0
6.9105260372161865,702.0
6.916440010070801,701.0
6.921344041824341,699.0
6.926064968109131,681.0
6.9309210777282715,683.0
6.935386896133423,707.0
6.9410059452056885,707.0
6.945550918579102,719.0
6.95091700553894,711.0
6.958256006240845,694.0
6.963021993637085,718.0
6.967761993408203,712.0
6.97186803817749,695.0
6.976564168930054,715.0
6.981106996536255,710.0
6.987677097320557,692.0
6.992891073226929,706.0
6.99716591835022,713.0
7.001205921173096,713.0
7.008291959762573,689.0
7.0128679275512695,713.0
7.016919851303101,722.0
7.0242109298706055,711.0
7.029382944107056,690.0
7.033742904663086,711.0
7.040874004364014,688.0
7.046325206756592,711.0
7.051822900772095,710.0
7.056671857833862,688.0
7.063225984573364,717.0
7.0682289600372314,710.0
7.07236909866333,719.0
7.07674503326416,714.0
7.081621885299683,699.0
7.0880348682403564,716.0
7.092990159988403,700.0
7.0978310108184814,720.0
7.1046061515808105,717.0
7.110092878341675,713.0
7.114754915237427,689.0
7.122087001800537,711.0
7.129812002182007,706.0
7.1354639530181885,711.0
7.139662027359009,705.0
7.1472790241241455,699.0
7.155022859573364,704.0
7.160093069076538,699.0
7.164387941360474,709.0
7.168478965759277,697.0
7.17328405380249,675.0
7.180253982543945,702.0
7.185469150543213,700.0
7.190274000167847,704.0
7.194650888442993,696.0
7.198720216751099,706.0
7.205928087234497,697.0
7.213101863861084,701.0
7.218604803085327,695.0
7.224318027496338,685.0
7.228837013244629,697.0
7.233697891235352,687.0
7.240949869155884,700.0
7.245856761932373,692.0
7.249691963195801,676.0
7.254231929779053,696.0
7.259235858917236,678.0
7.266345024108887,699.0
7.2709081172943115,700.0
7.274840831756592,694.0
7.2817161083221436,696.0
7.287246942520142,683.0
7.2918219566345215,691.0
7.296567916870117,688.0
7.300817966461182,668.0
7.308093070983887,686.0
7.313138961791992,699.0
7.318542003631592,691.0
7.324426174163818,697.0
7.329203128814697,696.0
7.334348917007446,701.0
7.342062950134277,702.0
7.350054979324341,681.0
7.355365037918091,696.0
7.3608479499816895,676.0
7.365715026855469,707.0
7.371240139007568,699.0
7.376101016998291,678.0
7.3809309005737305,710.0
7.38820481300354,701.0
7.39368200302124,691.0
7.398183107376099,701.0
7.405300140380859,702.0
7.410629034042358,712.0
7.41643500328064,705.0
7.421329975128174,690.0
7.426290988922119,708.0
7.431158781051636,698.0
7.438853979110718,704.0
7.446372985839844,702.0
7.451763153076172,689.0
7.457659959793091,705.0
7.462877035140991,689.0
7.468005895614624,700.0
7.473121881484985,701.0
7.480567932128906,712.0
7.488292932510376,705.0
7.493781805038452,693.0
7.499321937561035,708.0
7.5040647983551025,706.0
7.509191989898682,696.0
7.517009019851685,712.0
7.524052143096924,693.0
7.529400825500488,712.0
7.534789085388184,707.0
7.542931079864502,705.0
7.549901962280273,701.0
7.5553669929504395,708.0
7.5608720779418945,698.0
7.56575608253479,694.0
7.570274829864502,695.0
7.576416969299316,693.0
7.584176063537598,705.0
7.591521978378296,690.0
7.5969460010528564,682.0
7.602413892745972,688.0
7.607274770736694,671.0
7.6120100021362305,695.0
7.617542028427124,689.0
7.62510085105896,695.0
7.630612134933472,684.0
7.635560989379883,692.0
7.640839099884033,689.0
7.645915985107422,665.0
7.650875091552734,686.0
7.658659934997559,695.0
7.66463303565979,687.0
7.672118902206421,670.0
7.679631948471069,665.0
7.685106992721558,689.0
7.690973997116089,687.0
7.696459770202637,697.0
7.701205015182495,689.0
7.708605051040649,676.0
7.716580867767334,692.0
7.7223219871521,688.0
7.73020601272583,674.0
7.735311031341553,690.0
7.7399351596832275,682.0
7.746497869491577,687.0
7.751076936721802,681.0
7.7578699588775635,663.0
7.763368129730225,666.0
7.768907785415649,691.0
7.773728847503662,692.0
7.78078293800354,694.0
7.788225889205933,695.0
7.793690919876099,680.0
7.799318790435791,696.0
7.804847002029419,695.0
7.809280872344971,698.0
7.817050933837891,697.0
7.824542045593262,703.0
7.829916954040527,697.0
7.835274934768677,685.0
7.840074777603149,696.0
7.847411155700684,692.0
7.854817867279053,702.0
7.86023473739624,695.0
7.86598801612854,675.0
7.871083974838257,696.0
7.876208066940308,670.0
7.883274793624878,694.0
7.887829780578613,694.0
7.891880989074707,695.0
7.89659309387207,704.0
7.901278972625732,693.0
7.9084320068359375,684.0
7.913295030593872,694.0
7.917784929275513,667.0
7.922106981277466,698.0
7.926058769226074,693.0
7.9331090450286865,699.0
7.938854932785034,688.0
7.94366192817688,698.0
7.948414087295532,700.0
7.955160856246948,672.0
7.960529088973999,698.0
7.966446876525879,697.0
7.971740961074829,697.0
7.976326942443848,678.0
7.981137990951538,666.0
7.987779855728149,691.0
7.993239879608154,665.0
7.998286962509155,692.0
8.005393028259277,689.0
8.012986898422241,688.0
8.017977952957153,697.0
8.025088787078857,669.0
8.029482126235962,690.0
8.034305810928345,686.0
8.041591882705688,688.0
8.047055006027222,658.0
8.052541971206665,681.0
8.057383060455322,678.0
8.062198877334595,682.0
8.068128824234009,680.0
8.073006868362427,681.0
8.080163955688477,674.0
8.08542799949646,655.0
8.089884042739868,683.0
8.094826936721802,649.0
8.09897518157959,672.0
8.103667974472046,672.0
8.10777497291565,660.0
8.11230993270874,676.0
8.117418766021729,673.0
8.124520063400269,676.0
8.129162073135376,680.0
8.133161067962646,678.0
8.137709856033325,665.0
8.142611026763916,677.0
8.15127420425415,660.0
8.1564781665802,674.0
8.164325952529907,676.0
8.172114133834839,668.0
8.176985025405884,662.0
8.181447982788086,679.0
8.188577890396118,687.0
8.193944931030273,678.0
8.198890924453735,682.0
8.203598976135254,690.0
8.208366870880127,691.0
8.213344812393188,686.0
8.21815299987793,687.0
8.223276853561401,693.0
8.23061490058899,691.0
8.236041069030762,695.0
8.241426944732666,676.0
8.246309041976929,697.0
8.251072883605957,695.0
8.25818681716919,686.0
8.262789964675903,664.0
8.266993999481201,694.0
8.27489709854126,671.0
8.279782056808472,694.0
8.284298181533813,696.0
8.2918381690979,692.0
8.297314882278442,678.0
8.305166006088257,698.0
8.310231924057007,667.0
8.314440965652466,694.0
8.321517944335938,694.0
8.326653957366943,669.0
8.331453084945679,693.0
8.338594913482666,689.0
8.344099998474121,671.0
8.349789142608643,695.0
8.35484790802002,692.0
8.359396934509277,705.0
8.367751121520996,680.0
8.375088930130005,700.0
8.380469799041748,704.0
8.385950088500977,682.0
8.39058804512024,683.0
8.397711038589478,704.0
8.405744075775146,696.0
8.413740873336792,704.0
8.421566009521484,699.0
8.427058935165405,671.0
8.432645082473755,700.0
8.437641143798828,694.0
8.442744016647339,703.0
8.450232982635498,695.0
8.457962036132812,699.0
8.463627815246582,693.0
8.469058990478516,685.0
8.473902940750122,702.0
8.47907280921936,694.0
8.484169006347656,696.0
8.491600036621094,683.0
8.496658086776733,700.0
8.500907897949219,669.0
8.508821964263916,694.0
8.514846086502075,689.0
8.52241587638855,694.0
8.530033111572266,691.0
8.535494089126587,671.0
8.540961980819702,691.0
8.545650005340576,699.0
8.551062822341919,688.0
8.558563947677612,695.0
8.566839933395386,691.0
8.575141906738281,701.0
8.580336093902588,689.0
8.585420846939087,689.0
8.590078115463257,691.0
8.597715139389038,698.0
8.603573083877563,694.0
8.608138799667358,674.0
8.613627910614014,701.0
8.618369817733765,693.0
8.624329090118408,690.0
8.629559993743896,692.0
8.633661031723022,695.0
8.641788005828857,703.0
8.64680004119873,687.0
8.651489973068237,686.0
8.658672094345093,697.0
8.666133880615234,703.0
8.671051979064941,685.0
8.67490291595459,706.0
8.679432153701782,702.0
8.684498071670532,699.0
8.68993592262268,707.0
8.697819948196411,713.0
8.70523190498352,700.0
8.71065092086792,703.0
8.716434955596924,700.0
8.72137188911438,704.0
8.726284980773926,701.0
8.733500957489014,712.0
8.738362073898315,703.0
8.742862939834595,688.0
8.74739384651184,703.0
8.752114057540894,716.0
8.756935119628906,705.0
8.761996984481812,688.0
8.766226053237915,677.0
8.771201848983765,697.0
8.77637004852295,683.0
8.781540870666504,703.0
8.788613080978394,693.0
8.793524980545044,708.0
8.798609018325806,710.0
8.803661823272705,696.0
8.808271884918213,717.0
8.812597751617432,704.0
8.816400051116943,714.0
8.822037935256958,706.0
8.826287984848022,712.0
8.831465005874634,704.0
8.83885407447815,706.0
8.843684911727905,688.0
8.848618030548096,698.0
8.856021881103516,695.0
8.863899946212769,693.0
8.871896982192993,679.0
8.880013942718506,688.0
8.885609149932861,697.0
8.890021085739136,688.0
8.896872997283936,662.0
8.901782989501953,673.0
8.906023979187012,690.0
8.910063028335571,688.0
8.914515018463135,692.0
8.918540954589844,693.0
8.923378944396973,690.0
8.930048942565918,685.0
8.934770107269287,690.0
8.938842058181763,688.0
8.942876100540161,682.0
8.947396039962769,689.0
8.954549074172974,666.0
8.96015191078186,689.0
8.964462041854858,694.0
8.968661785125732,672.0
8.973108053207397,663.0
8.979775190353394,669.0
8.985220909118652,692.0
8.98995590209961,661.0
8.996817111968994,680.0
9.00446081161499,685.0
9.009961128234863,683.0
9.015947818756104,686.0
9.020358085632324,685.0
9.024795055389404,681.0
9.030297994613647,681.0
9.034960985183716,658.0
9.04090404510498,688.0
9.04544711112976,685.0
9.049803972244263,683.0
9.055328845977783,693.0
9.05976676940918,683.0
9.065818071365356,687.0
9.070413827896118,694.0
9.074821949005127,687.0
9.080291032791138,685.0
9.084745168685913,694.0
9.090687990188599,661.0
9.097087144851685,664.0
9.101993083953857,696.0
9.106228113174438,692.0
9.110209941864014,690.0
9.115161895751953,689.0
9.121876001358032,692.0
9.127425909042358,690.0
9.131983041763306,702.0
9.138928890228271,697.0
9.1436288356781,707.0
9.148543119430542,702.0
9.156292915344238,694.0
9.163701057434082,699.0
9.168828010559082,690.0
9.17322301864624,699.0
9.179962873458862,680.0
9.185556173324585,692.0
9.190201044082642,673.0
9.197471141815186,695.0
9.205567121505737,689.0
9.213557004928589,697.0
9.219034910202026,702.0
9.22475790977478,673.0
9.230037212371826,702.0
9.23442006111145,700.0
9.242799043655396,698.0
9.250937938690186,704.0
9.256880044937134,695.0
9.26448917388916,688.0
9.272069931030273,687.0
9.277567148208618,698.0
9.283102035522461,690.0
9.288028001785278,680.0
9.293020963668823,694.0
9.300290822982788,699.0
9.30863094329834,691.0
9.316818952560425,691.0
9.321600198745728,690.0
9.326385974884033,698.0
9.334332942962646,669.0
9.339954137802124,689.0
9.347322940826416,685.0
9.355112075805664,660.0
9.360620975494385,685.0
9.366443872451782,670.0
9.371088981628418,690.0
9.37620210647583,668.0
9.384680032730103,665.0
9.388912916183472,689.0
9.393094062805176,689.0
9.400284051895142,691.0
9.407634019851685,689.0
9.412024974822998,687.0
9.416486978530884,698.0
9.421815872192383,688.0
9.426154136657715,667.0
9.430670976638794,670.0
9.436278820037842,691.0
9.441338062286377,683.0
9.446681022644043,677.0
9.45144510269165,680.0
9.456202030181885,682.0
9.463682889938354,677.0
9.47137188911438,681.0
9.476784944534302,687.0
9.482638835906982,686.0
9.487550020217896,688.0
9.492648124694824,700.0
9.500106811523438,699.0
9.504688024520874,698.0
9.508721113204956,700.0
9.516686916351318,696.0
9.52216100692749,694.0
9.52762508392334,695.0
9.532425165176392,693.0
9.53787899017334,689.0
9.542635917663574,700.0
9.549736022949219,694.0
9.554817914962769,696.0
9.559720039367676,697.0
9.564213752746582,695.0
9.568822860717773,700.0
9.572938919067383,683.0
9.577320098876953,695.0
9.58227014541626,691.0
9.58936882019043,703.0
9.597135066986084,695.0
9.605638027191162,684.0
9.613744020462036,704.0
9.621332168579102,694.0
9.626051902770996,670.0
9.633108139038086,696.0
9.63783597946167,693.0
9.642719030380249,684.0
9.651008129119873,700.0
9.656982898712158,697.0
9.66425895690918,701.0
9.669609069824219,687.0
9.6737380027771,710.0
9.681083917617798,705.0
9.686883926391602,679.0
9.69149398803711,702.0
9.69711709022522,671.0
9.702120065689087,698.0
9.706945896148682,693.0
9.7119619846344,700.0
9.716454029083252,699.0
9.721827030181885,691.0
9.72670602798462,681.0
9.732672929763794,697.0
9.737944841384888,676.0
9.742089033126831,685.0
9.750056028366089,683.0
9.754854917526245,683.0
9.758687019348145,686.0
9.766507863998413,663.0
9.771998167037964,682.0
9.776900053024292,684.0
9.782762050628662,673.0
9.788681983947754,687.0
9.79337191581726,684.0
9.798397064208984,688.0
9.805775880813599,660.0
9.814046144485474,678.0
9.822201013565063,676.0
9.829838991165161,681.0
9.835301876068115,687.0
9.840979099273682,659.0
9.845890998840332,673.0
9.851040840148926,685.0
9.859386920928955,693.0
9.863868951797485,678.0
9.868054866790771,671.0
9.876012802124023,681.0
9.881996870040894,668.0
9.88901686668396,680.0
9.896405935287476,651.0
9.901824951171875,678.0
9.907634019851685,675.0
9.912800788879395,677.0
9.917930126190186,688.0
9.925369024276733,680.0
9.932486057281494,658.0
9.937957048416138,692.0
9.943383932113647,695.0
9.947905778884888,691.0
9.954784870147705,696.0
9.959765195846558,689.0
9.966538906097412,697.0
9.971785068511963,689.0
9.976489067077637,693.0
9.981483936309814,691.0
9.986418962478638,692.0
9.991183042526245,696.0
9.996474027633667,693.0
10.001269102096558,694.0
10.00569200515747,703.0
10.010079860687256,696.0
10.014781951904297,695.0
10.021389961242676,702.0
10.026240825653076,669.0
10.033638954162598,693.0
10.041182041168213,694.0
10.04593300819397,694.0
10.050809860229492,690.0
10.058525085449219,690.0
10.063334941864014,666.0
10.068246841430664,691.0
10.072247982025146,666.0
10.076710939407349,691.0
10.081108093261719,695.0
10.085427045822144,698.0
10.090206146240234,702.0
10.096646070480347,701.0
10.101132869720459,681.0
10.10842514038086,702.0
10.112149953842163,694.0
10.116528987884521,692.0
10.12083101272583,688.0
10.124764919281006,692.0
10.130093812942505,684.0
10.13444995880127,682.0
10.141934871673584,684.0
10.149271965026855,693.0
10.154653072357178,683.0
10.160114049911499,674.0
10.164958000183105,664.0
10.172071933746338,686.0
10.177479982376099,684.0
10.18317699432373,685.0
10.187870979309082,686.0
10.192900896072388,680.0
10.19758915901184,678.0
10.20547890663147,687.0
10.213566064834595,665.0
10.218585014343262,687.0
10.223039150238037,686.0
10.230118036270142,680.0
10.233377933502197,677.0
10.238599061965942,672.0
10.24351692199707,690.0
10.247851848602295,685.0
10.25550389289856,683.0
10.263540983200073,681.0
10.268565893173218,681.0
10.273472785949707,677.0
10.278171062469482,682.0
10.282958984375,652.0
10.287780046463013,679.0
10.292732000350952,653.0
10.300173997879028,661.0
10.305087089538574,649.0
10.309471130371094,677.0
10.314001083374023,674.0
10.318295955657959,651.0
10.323263168334961,678.0
10.330380916595459,678.0
10.3353910446167,683.0
10.34041690826416,686.0
10.347856044769287,691.0
10.353933811187744,692.0
10.358816862106323,665.0
10.366991996765137,686.0
10.374449968338013,684.0
10.379914045333862,690.0
10.385395050048828,685.0
10.39022183418274,668.0
10.394597053527832,671.0
10.400821924209595,692.0
10.40819787979126,694.0
10.41373896598816,669.0
10.418537139892578,691.0
10.423251152038574,689.0
10.427963018417358,675.0
10.432446002960205,687.0
10.437527894973755,696.0
10.441541910171509,688.0
10.447282075881958,678.0
10.451635122299194,674.0
10.456991910934448,690.0
10.461616039276123,696.0
10.465547800064087,675.0
10.472282886505127,687.0
10.479829788208008,688.0
10.48525595664978,695.0
10.490948915481567,678.0
10.496390104293823,675.0
10.501106977462769,679.0
10.508645057678223,670.0
10.517560958862305,688.0
10.525007009506226,695.0
10.529628992080688,696.0
10.534220933914185,673.0
10.541855096817017,693.0
10.549561977386475,690.0
10.555193901062012,688.0
10.560688018798828,676.0
10.565536975860596,694.0
10.57006287574768,683.0
10.576328039169312,682.0
10.581591844558716,683.0
10.588752031326294,687.0
10.59353518486023,692.0
10.598698139190674,665.0
10.603461980819702,654.0
10.60789704322815,677.0
10.612370014190674,680.0
10.616604089736938,680.0
10.621185779571533,688.0
10.62635612487793,685.0
10.633689880371094,689.0
10.641344785690308,680.0
10.64678692817688,680.0
10.652195930480957,675.0
10.657052993774414,686.0
10.662394046783447,684.0
10.66756296157837,677.0
10.67461109161377,678.0
10.68000078201294,672.0
10.68467116355896,670.0
10.692958116531372,673.0
10.698408126831055,678.0
10.705606937408447,671.0
10.713209867477417,686.0
10.718592166900635,671.0
10.72429084777832,673.0
10.729593992233276,682.0
10.734403848648071,675.0
10.742005109786987,673.0
10.750000953674316,672.0
10.755391120910645,673.0
10.760776042938232,676.0
10.765639066696167,675.0
10.772451877593994,690.0
10.779932975769043,686.0
10.784803867340088,687.0
10.793055057525635,692.0
10.798476934432983,668.0
10.805919170379639,689.0
10.813475847244263,669.0
10.81889009475708,670.0
10.824774980545044,671.0
10.829409837722778,665.0
10.834518909454346,682.0
10.842546939849854,685.0
10.849422931671143,686.0
10.85488486289978,684.0
10.860351085662842,694.0
10.865219831466675,688.0
10.869623899459839,690.0
10.87586498260498,692.0
10.882950067520142,666.0
10.88761305809021,691.0
10.891699075698853,672.0
10.896180152893066,691.0
10.901301145553589,693.0
10.909407138824463,691.0
10.916790962219238,699.0
10.922430038452148,689.0
10.92790699005127,669.0
10.932685852050781,694.0
10.9374098777771,671.0
10.943079948425293,697.0
10.947935104370117,696.0
10.955551862716675,678.0
10.963227033615112,697.0
10.968677043914795,698.0
10.97439193725586,677.0
10.97904896736145,699.0
10.984170198440552,688.0
10.9915931224823,698.0
10.996579885482788,694.0
11.001436948776245,669.0
11.006080150604248,668.0
11.013557195663452,690.0
11.021561861038208,685.0
11.026867151260376,689.0
11.031557083129883,682.0
11.03901195526123,683.0
11.046798944473267,659.0
11.051753997802734,680.0
11.05599594116211,684.0
11.062941074371338,683.0
11.0678870677948,686.0
11.075228929519653,681.0
11.083369970321655,659.0
11.088061094284058,683.0
11.093001127243042,681.0
11.097622871398926,685.0
11.104726791381836,655.0
11.109984874725342,680.0
11.11455488204956,689.0
11.121461153030396,654.0
11.126937866210938,678.0
11.132664918899536,681.0
11.136997938156128,661.0
11.142842054367065,666.0
11.147723913192749,664.0
11.154778957366943,680.0
11.159562826156616,681.0
11.166241884231567,675.0
11.171531915664673,685.0
11.177045106887817,680.0
11.182657957077026,687.0
11.187290906906128,670.0
11.192174911499023,679.0
11.199946880340576,677.0
11.20515489578247,656.0
11.209472179412842,680.0
11.217880964279175,678.0
11.225143909454346,677.0
11.229871988296509,660.0
11.234465837478638,689.0
11.241838932037354,697.0
11.24758791923523,690.0
11.25542402267456,670.0
11.260811805725098,690.0
11.266424894332886,694.0
11.271502017974854,695.0
11.276010751724243,696.0
11.284320831298828,691.0
11.291683912277222,695.0
11.297039031982422,693.0
11.302503108978271,695.0
11.307713985443115,674.0
11.312451839447021,700.0
11.317641973495483,696.0
11.325198888778687,698.0
11.33017611503601,700.0
11.334299087524414,692.0
11.3417649269104,697.0
11.347182989120483,691.0
11.352697849273682,688.0
11.357532978057861,686.0
11.362468004226685,695.0
11.367619037628174,690.0
11.374849796295166,688.0
11.3798828125,693.0
11.384171962738037,688.0
11.391733884811401,702.0
11.395061016082764,694.0
11.40020203590393,702.0
11.405210971832275,700.0
11.409984111785889,709.0
11.414261102676392,700.0
11.41849398612976,701.0
11.423376083374023,695.0
11.43089485168457,674.0
11.438278913497925,689.0
11.443789958953857,688.0
11.449331998825073,691.0
11.454202890396118,691.0
11.459342956542969,685.0
11.467761993408203,686.0
11.476021766662598,683.0
11.483721017837524,681.0
11.492017984390259,683.0
11.500182867050171,682.0
11.50471305847168,688.0
11.508440017700195,679.0
11.513370990753174,658.0
11.517879962921143,680.0
11.52482008934021,656.0
11.529802083969116,675.0
11.534557104110718,663.0
11.542175054550171,681.0
11.549760818481445,674.0
11.554994106292725,654.0
11.559462070465088,679.0
11.566579103469849,680.0
11.571429967880249,667.0
11.57593297958374,670.0
11.583059072494507,681.0
11.588531970977783,681.0
11.594012022018433,680.0
11.599009990692139,685.0
11.605669021606445,679.0
11.612866878509521,689.0
11.61775803565979,681.0
11.624922037124634,656.0
11.630229949951172,679.0
11.63574481010437,684.0
11.640542984008789,687.0
11.645922899246216,686.0
11.651029109954834,688.0
11.658169984817505,665.0
11.662933826446533,675.0
11.667147874832153,689.0
11.67471694946289,695.0
11.678082942962646,687.0
11.682666063308716,685.0
11.687800884246826,678.0
11.691904783248901,694.0
11.698739051818848,688.0
11.703400135040283,702.0
11.707664012908936,690.0
11.711938858032227,688.0
11.716110944747925,697.0
11.720706939697266,693.0
11.725811004638672,704.0
11.733119010925293,701.0
11.737697839736938,710.0
11.742125988006592,704.0
11.749383926391602,686.0
11.754090070724487,711.0
11.758204936981201,687.0
11.762650966644287,705.0
11.766721963882446,704.0
11.770804166793823,714.0
11.775812864303589,708.0
11.783060073852539,713.0
11.78783917427063,703.0
11.792083978652954,687.0
11.79966402053833,708.0
11.804025888442993,715.0
11.807868003845215,721.0
11.812373161315918,705.0
11.81661605834961,718.0
11.821115016937256,721.0
11.826005935668945,726.0
11.830590963363647,714.0
11.835983991622925,705.0
11.840837001800537,720.0
11.845703125,713.0
11.850863933563232,705.0
11.858142137527466,683.0
11.86271595954895,704.0
11.86663007736206,703.0
11.87090277671814,701.0
11.876099824905396,700.0
11.883280992507935,706.0
11.887808084487915,684.0
11.89177393913269,703.0
11.896024942398071,699.0
11.90109896659851,707.0
11.908195972442627,679.0
11.912938117980957,699.0
11.916770935058594,696.0
11.921396017074585,678.0
11.92632007598877,696.0
11.932699918746948,698.0
11.937994956970215,701.0
11.941819906234741,691.0
11.946624040603638,699.0
11.951319932937622,700.0
11.958543062210083,704.0
11.965832948684692,700.0
11.971457958221436,697.0
11.976812839508057,700.0
11.981651067733765,694.0
11.988501071929932,703.0
11.993292808532715,703.0
11.997575044631958,700.0
12.001596927642822,707.0
12.006448030471802,697.0
12.01354694366455,693.0
12.018963098526001,668.0
12.023335933685303,689.0
12.029863119125366,691.0
12.03549599647522,698.0
12.040143013000488,697.0
12.046853065490723,677.0
12.052277088165283,676.0
12.05812692642212,677.0
12.062823057174683,701.0
12.067929983139038,702.0
12.07541012763977,693.0
12.083379983901978,708.0
12.088742971420288,705.0
12.094177961349487,713.0
12.099005937576294,707.0
12.104457139968872,710.0
12.109304904937744,695.0
12.116712093353271,703.0
12.121520042419434,712.0
12.125866889953613,706.0
12.13326907157898,711.0
12.138426065444946,709.0
12.143899917602539,701.0
12.149780988693237,707.0
12.154666900634766,702.0
12.159433126449585,703.0
12.166116952896118,710.0
12.170427083969116,698.0
12.174133777618408,706.0
12.17986798286438,695.0
12.184845924377441,707.0
12.191594123840332,679.0
12.19622802734375,706.0
12.200090885162354,706.0
12.204981088638306,711.0
12.209362030029297,684.0
12.216472864151001,709.0
12.22122311592102,690.0
12.224979162216187,713.0
12.229538917541504,690.0
12.23446798324585,716.0
12.24139404296875,708.0
12.246122121810913,684.0
12.249837875366211,705.0
12.254403829574585,701.0
12.25934386253357,706.0
12.26600694656372,697.0
12.270375967025757,672.0
12.274072885513306,704.0
12.280741930007935,693.0
12.286962032318115,679.0
12.291393995285034,697.0
12.29601502418518,693.0
12.299967050552368,692.0
12.304523944854736,692.0
12.309293985366821,665.0
12.315615892410278,692.0
12.322072982788086,694.0
12.32661485671997,684.0
12.331048011779785,698.0
12.335065841674805,692.0
12.341962099075317,696.0
12.34932804107666,695.0
12.354795932769775,692.0
12.360209941864014,668.0
12.365014791488647,694.0
12.371904134750366,693.0
12.37699294090271,696.0
12.381170988082886,686.0
12.385288953781128,689.0
12.390090942382812,685.0
12.396981954574585,667.0
12.402259111404419,699.0
12.40645694732666,693.0
12.412882089614868,701.0
12.417972087860107,689.0
12.425968885421753,693.0
12.433097124099731,700.0
12.438330888748169,676.0
12.443022012710571,706.0
12.447295188903809,691.0
12.451656103134155,698.0
12.45875096321106,700.0
12.465831995010376,705.0
12.472193956375122,702.0
12.479877948760986,707.0
12.485207796096802,707.0
12.4895179271698,704.0
12.493937969207764,708.0
12.498237133026123,705.0
12.504927158355713,708.0
12.509905099868774,700.0
12.514120101928711,704.0
12.521296977996826,692.0
12.526494026184082,713.0
12.530560970306396,707.0
12.534709930419922,684.0
12.539537906646729,713.0
12.546319961547852,696.0
12.551756858825684,705.0
12.556416034698486,678.0
12.562805891036987,704.0
12.568158149719238,703.0
12.574169874191284,703.0
12.578740119934082,709.0
12.583125114440918,705.0
12.588523864746094,684.0
12.593348026275635,711.0
12.599277973175049,683.0
12.604017972946167,710.0
12.609172105789185,703.0
12.616682052612305,703.0
12.621781826019287,708.0
12.626508951187134,711.0
12.634720802307129,701.0
12.642757892608643,712.0
12.65015697479248,706.0
12.655488967895508,694.0
12.66083288192749,704.0
12.66643500328064,701.0
12.671481847763062,678.0
12.67630386352539,697.0
12.683511972427368,701.0
12.688874959945679,697.0
12.69326901435852,686.0
12.697673082351685,700.0
12.70190715789795,700.0
12.706778049468994,692.0
12.711912155151367,692.0
12.715739011764526,666.0
12.721308946609497,688.0
12.726074934005737,691.0
12.733475923538208,693.0
12.739428997039795,671.0
12.74759578704834,686.0
12.75587010383606,690.0
12.76366901397705,682.0
12.769127130508423,688.0
12.774780035018921,688.0
12.779359102249146,691.0
12.78445291519165,687.0
12.789354085922241,688.0
12.793776988983154,687.0
12.799304962158203,689.0
12.805069923400879,690.0
12.809525966644287,688.0
12.816725969314575,687.0
12.82168197631836,664.0
12.82546591758728,685.0
12.83414888381958,686.0
12.84158706665039,688.0
12.846769094467163,671.0
12.851364850997925,681.0
12.856482982635498,682.0
12.863348007202148,686.0
12.868199110031128,691.0
12.873150110244751,695.0
12.880128145217896,695.0
12.885544061660767,684.0
12.891438961029053,695.0
12.896445035934448,670.0
12.901360988616943,700.0
12.906314849853516,706.0
12.91437292098999,697.0
12.92245888710022,701.0
12.93010687828064,684.0
12.934997081756592,694.0
12.939932107925415,700.0
12.94794511795044,686.0
12.955955982208252,698.0
12.96359896659851,697.0
12.969097137451172,701.0
12.97482681274414,709.0
12.979974031448364,699.0
12.984379053115845,707.0
12.991857051849365,701.0
12.996618032455444,706.0
13.00089406967163,698.0
13.009538888931274,676.0
13.015616178512573,695.0
13.020341873168945,694.0
13.02482008934021,692.0
13.030188798904419,693.0
13.035640954971313,694.0
13.041481018066406,693.0
13.046848773956299,700.0
13.05178189277649,678.0
13.05696702003479,706.0
13.061964988708496,705.0
13.06615686416626,710.0
13.071937799453735,706.0
13.076555967330933,707.0
13.081393003463745,691.0
13.089287042617798,702.0
13.097182035446167,703.0
13.105042934417725,694.0
13.10990285873413,700.0
13.114439010620117,692.0
13.121950149536133,684.0
13.130186080932617,689.0
13.135628938674927,667.0
13.141461849212646,692.0
13.145850896835327,688.0
13.151403903961182,688.0
13.158629894256592,666.0
13.166018009185791,688.0
13.171465158462524,692.0
13.17690396308899,694.0
13.181769132614136,688.0
13.187103748321533,675.0
13.191465139389038,692.0
13.197571992874146,684.0
13.205300092697144,687.0
13.210304975509644,692.0
13.215200901031494,687.0
13.222824096679688,695.0
13.228807926177979,698.0
13.233694076538086,668.0
13.241862058639526,690.0
13.247108936309814,671.0
13.251253128051758,687.0
13.25984811782837,663.0
13.26588773727417,689.0
13.270384073257446,685.0
13.276307106018066,695.0
13.281146049499512,685.0
13.289036989212036,690.0
13.296643018722534,686.0
13.302129030227661,690.0
13.307645082473755,668.0
13.312541007995605,685.0
13.31770396232605,687.0
13.322465896606445,692.0
13.327193021774292,694.0
13.333105087280273,697.0
13.338314056396484,700.0
13.34273076057434,699.0
13.350189924240112,679.0
13.354936838150024,702.0
13.359121084213257,698.0
13.36683201789856,697.0
13.37228512763977,695.0
13.37776494026184,698.0
13.382637977600098,699.0
13.387871742248535,703.0
13.39309287071228,676.0
13.398751735687256,702.0
13.403807163238525,690.0
13.408411979675293,704.0
13.41369891166687,695.0
13.418708086013794,703.0
13.423818826675415,702.0
13.428637981414795,710.0
13.432809114456177,707.0
13.438021898269653,700.0
13.442752838134766,675.0
13.450198888778687,702.0
13.455232858657837,698.0
13.459589958190918,701.0
13.467609882354736,690.0
13.474795818328857,700.0
13.479343891143799,676.0
13.48357105255127,706.0
13.491286993026733,702.0
13.49620795249939,711.0
13.500255823135376,706.0
13.508059024810791,710.0
13.513767957687378,710.0
13.518898963928223,706.0
13.523713827133179,679.0
13.529164791107178,704.0
13.534300088882446,699.0
13.541930198669434,694.0
13.549746990203857,697.0
13.55550503730774,688.0
13.560330867767334,695.0
13.566020965576172,686.0
13.571769952774048,693.0
13.576550006866455,663.0
13.581295013427734,686.0
13.588670015335083,688.0
13.596615076065063,688.0
13.602228164672852,692.0
13.608134031295776,681.0
13.613293886184692,690.0
13.617666006088257,689.0
13.6248619556427,687.0
13.629658937454224,691.0
13.634400844573975,682.0
13.641772985458374,692.0
13.647135019302368,660.0
13.652556896209717,669.0
13.657378911972046,666.0
13.662816762924194,693.0
13.667906999588013,658.0
13.675517082214355,683.0
13.684217929840088,693.0
13.691864013671875,683.0
13.697142839431763,656.0
13.701436042785645,681.0
13.706401824951172,655.0
13.714462995529175,681.0
13.7207670211792,690.0
13.725830078125,684.0
13.733760833740234,682.0
13.739638805389404,684.0
13.747003078460693,686.0
13.754936933517456,686.0
13.760304927825928,688.0
13.765998840332031,687.0
13.771270036697388,663.0
13.776290893554688,693.0
13.781146049499512,680.0
13.78890609741211,688.0
13.796718835830688,686.0
13.802119016647339,694.0
13.807680130004883,674.0
13.812796115875244,698.0
13.817938089370728,669.0
13.825320959091187,689.0
13.832896947860718,661.0
13.838392972946167,690.0
13.843846082687378,681.0
13.848648071289062,686.0
13.855779886245728,683.0
13.86353588104248,690.0
13.868995904922485,691.0
13.874748945236206,691.0
13.880053043365479,701.0
13.88439416885376,697.0
13.891639947891235,698.0
13.89659309387207,694.0
13.901236057281494,705.0
13.905838012695312,696.0
13.910188913345337,704.0
13.915013074874878,698.0
13.922240018844604,676.0
13.92723298072815,703.0
13.931587934494019,701.0
13.93843698501587,679.0
13.943001985549927,697.0
13.950399160385132,694.0
13.9585120677948,695.0
13.963240146636963,691.0
13.967910051345825,692.0
13.974934816360474,685.0
13.980046033859253,660.0
13.984369039535522,691.0
13.991822957992554,672.0
13.997176885604858,686.0
14.002665042877197,684.0
14.007590055465698,694.0
14.012149810791016,684.0
14.017557859420776,687.0
14.025243997573853,681.0
14.03352689743042,683.0
14.041976928710938,692.0
14.049882888793945,662.0
14.055547952651978,681.0
14.060602903366089,657.0
14.06525993347168,682.0
14.072317123413086,680.0
14.07729697227478,683.0
14.082728147506714,680.0
14.087583780288696,688.0
14.092586040496826,682.0
14.10048794746399,661.0
14.108463048934937,680.0
14.113161087036133,685.0
14.117445945739746,657.0
14.124878883361816,683.0
14.129930019378662,683.0
14.134115934371948,663.0
14.141912937164307,681.0
14.14999008178711,681.0
14.155094861984253,684.0
14.159711122512817,688.0
14.164831161499023,689.0
14.171790838241577,686.0
14.176955938339233,674.0
14.182464838027954,692.0
14.187904834747314,687.0
14.192823886871338,682.0
14.200433015823364,687.0
14.208522081375122,684.0
14.21389102935791,685.0
14.21940279006958,662.0
14.224240064620972,693.0
14.22953200340271,691.0
14.234683990478516,691.0
14.239789962768555,669.0
14.247166156768799,692.0
14.255281925201416,687.0
14.260691165924072,692.0
14.266490936279297,698.0
14.271466970443726,678.0
14.276082038879395,695.0
14.28330397605896,671.0
14.288311958312988,679.0
14.293282985687256,697.0
14.29786992073059,680.0
14.305299043655396,705.0
14.313354015350342,699.0
14.318779945373535,697.0
14.323434829711914,709.0
14.330230951309204,701.0
14.3349769115448,677.0
14.339515924453735,701.0
14.346894979476929,703.0
14.352432012557983,673.0
14.358134984970093,692.0
14.362785816192627,703.0
14.367925882339478,674.0
14.372915029525757,699.0
14.380382061004639,710.0
14.388127088546753,706.0
14.393550872802734,705.0
14.399336099624634,715.0
14.404579877853394,703.0
14.409425020217896,680.0
14.41710901260376,706.0
14.425438165664673,681.0
14.43356990814209,693.0
14.44180703163147,689.0
14.447206974029541,695.0
14.452551126480103,690.0
14.457417011260986,688.0
14.462779998779297,688.0
14.467765092849731,688.0
14.475329875946045,662.0
14.48340106010437,695.0
14.488785028457642,680.0
14.49413013458252,686.0
14.498939990997314,686.0
14.504341840744019,687.0
14.509430885314941,688.0
14.51678991317749,688.0
14.521641969680786,690.0
14.525875091552734,692.0
14.533699035644531,677.0
14.541630983352661,691.0
14.54681396484375,687.0
14.55152177810669,683.0
14.555871963500977,686.0
14.563024044036865,682.0
14.56787109375,675.0
14.574883937835693,673.0
14.580365896224976,660.0
14.585827827453613,686.0
14.590734004974365,680.0
14.597407817840576,659.0
14.60473108291626,676.0
14.610322952270508,678.0
14.616028070449829,681.0
14.620767831802368,677.0
14.62647008895874,676.0
14.631445169448853,674.0
14.638407945632935,673.0
14.64326000213623,688.0
14.64761996269226,670.0
14.65171217918396,692.0
14.65653395652771,689.0
14.663654088973999,689.0
14.668874025344849,692.0
14.67338514328003,697.0
14.680085182189941,676.0
14.685023069381714,697.0
14.689917087554932,699.0
14.69490385055542,697.0
14.699404954910278,697.0
14.703980922698975,676.0
14.708411931991577,680.0
14.71306300163269,695.0
14.717503070831299,699.0
14.72504997253418,674.0
14.730190992355347,695.0
14.734607934951782,693.0
14.741872072219849,692.0
14.747359037399292,702.0
14.754586935043335,701.0
14.760096788406372,692.0
14.764425992965698,675.0
14.768768787384033,693.0
14.773367881774902,702.0
14.779834032058716,696.0
14.784793853759766,669.0
14.791725873947144,691.0
14.796183824539185,697.0
14.80094599723816,685.0
14.808430910110474,703.0
14.813843011856079,705.0
14.81929087638855,685.0
14.82420015335083,703.0
14.829560995101929,698.0
14.834737062454224,700.0
14.839646100997925,672.0
14.8470618724823,697.0
14.854953050613403,692.0
14.860541105270386,688.0
14.866461038589478,659.0
14.870789051055908,685.0
14.875941038131714,685.0
14.882712841033936,690.0
14.887436866760254,689.0
14.891293048858643,692.0
14.896098852157593,661.0
14.900968074798584,679.0
14.907978773117065,689.0
14.91273307800293,695.0
14.9167640209198,698.0
14.921056985855103,663.0
14.926204919815063,673.0
14.933337926864624,683.0
14.938133001327515,669.0
14.942710876464844,687.0
14.949431896209717,687.0
14.954026937484741,660.0
14.958111047744751,677.0
14.962325811386108,677.0
14.966490030288696,661.0
14.97102403640747,684.0
14.975940942764282,685.0
14.982404947280884,668.0
14.988927125930786,666.0
14.993774890899658,686.0
14.998460054397583,679.0
15.003296852111816,686.0
15.00780701637268,688.0
15.012885808944702,688.0
15.016664981842041,680.0
15.021160125732422,681.0
15.026159048080444,664.0
15.03348994255066,687.0
15.038761138916016,687.0
15.043055057525635,691.0
15.047690153121948,690.0
15.051818132400513,696.0
15.05651593208313,698.0
15.062924861907959,677.0
15.068538904190063,684.0
15.07306694984436,696.0
15.080196857452393,702.0
15.085676908493042,693.0
15.09146785736084,697.0
15.096045970916748,697.0
15.101152896881104,693.0
15.108340978622437,701.0
15.113094091415405,692.0
15.117953777313232,696.0
15.12548279762268,669.0
15.132828950881958,695.0
15.137723922729492,696.0
15.141726016998291,697.0
15.146291971206665,696.0
15.151340961456299,694.0
15.156208038330078,695.0
15.161732912063599,689.0
15.166459083557129,680.0
15.171022891998291,695.0
15.176403045654297,684.0
15.18421196937561,662.0
15.19148302078247,688.0
15.196846008300781,664.0
15.202224969863892,666.0
15.207109928131104,683.0
15.214309930801392,694.0
15.222151041030884,699.0
15.227605104446411,696.0
15.233120918273926,703.0
15.237432956695557,695.0
15.2430899143219,700.0
15.247980833053589,691.0
15.25492787361145,671.0
15.260560989379883,690.0
15.265069961547852,685.0
15.27191686630249,656.0
15.277189016342163,680.0
15.282670021057129,684.0
15.28820013999939,693.0
15.292967081069946,666.0
15.30025577545166,683.0
15.307098865509033,683.0
15.313665866851807,658.0
15.319102048873901,675.0
15.3247709274292,655.0
15.329185962677002,679.0
15.3347909450531,681.0
15.341628074645996,651.0
15.346486806869507,669.0
15.351269006729126,678.0
15.355884790420532,680.0
15.363173007965088,680.0
15.368297100067139,675.0
15.372395992279053,673.0
15.376718044281006,679.0
15.380819082260132,648.0
15.38486385345459,673.0
15.391818046569824,677.0
15.396680116653442,678.0
15.401363134384155,674.0
15.405751943588257,682.0
15.413218975067139,671.0
15.4179208278656,652.0
15.425205945968628,678.0
15.433490991592407,687.0
15.438368797302246,656.0
15.442655086517334,689.0
15.450109958648682,688.0
15.453386783599854,685.0
15.458069086074829,683.0
15.462297916412354,688.0
15.466744899749756,688.0
15.471327781677246,689.0
15.476342916488647,692.0
15.481235027313232,669.0
15.487990856170654,690.0
15.493226766586304,691.0
15.497130870819092,699.0
15.501015901565552,675.0
15.508430004119873,690.0
15.513439178466797,697.0
15.518200874328613,687.0
15.522761106491089,693.0
15.530017852783203,688.0
15.535526037216187,693.0
15.541032075881958,701.0
15.546428918838501,694.0
15.551099061965942,698.0
15.558366060256958,695.0
15.56323790550232,704.0
15.567837953567505,698.0
15.57534909248352,669.0
15.583306074142456,692.0
15.588735103607178,693.0
15.594161987304688,695.0
15.598997116088867,700.0
15.603697061538696,696.0
15.609791994094849,701.0
15.61710500717163,696.0
15.624606132507324,700.0
15.630032062530518,704.0
15.635467767715454,680.0
15.640306949615479,702.0
15.647423028945923,706.0
15.654700994491577,698.0
15.660160064697266,683.0
15.666048049926758,694.0
15.671203851699829,696.0
15.67618703842163,694.0
15.682862043380737,690.0
15.687594890594482,679.0
15.691712856292725,685.0
15.696141958236694,683.0
15.701234102249146,689.0
15.7086501121521,661.0
15.715902090072632,675.0
15.721324920654297,663.0
15.72669506072998,684.0
15.73157787322998,682.0
15.738261938095093,685.0
15.743632078170776,684.0
15.748265027999878,690.0
15.754847764968872,686.0
15.759724855422974,687.0
15.766513109207153,684.0
15.771970987319946,684.0
15.77746295928955,684.0
15.781960010528564,683.0
15.788952827453613,682.0
15.796401023864746,690.0
15.801349878311157,691.0
15.808372020721436,692.0
15.813770771026611,689.0
15.819257020950317,681.0
15.824128150939941,681.0
15.82876706123352,683.0
15.834845066070557,673.0
15.839675903320312,679.0
15.846965789794922,678.0
15.852277755737305,679.0
15.856854915618896,680.0
15.86322283744812,682.0
15.867999792098999,681.0
15.874932050704956,682.0
15.88029408454895,689.0
15.885770082473755,684.0
15.890643119812012,681.0
15.897819995880127,694.0
15.905290126800537,691.0
15.910778999328613,694.0
15.916447877883911,687.0
15.921051979064941,663.0
15.926074981689453,672.0
15.932683944702148,693.0
15.93704104423523,696.0
15.941020011901855,691.0
15.945582866668701,699.0
15.951470851898193,696.0
15.956312894821167,700.0
15.963335990905762,680.0
15.968512058258057,697.0
15.972570896148682,669.0
15.97667384147644,691.0
15.981498003005981,690.0
15.988285064697266,699.0
15.99338984489441,665.0
15.997616052627563,670.0
16.00189185142517,690.0
16.006646871566772,681.0
16.013684034347534,695.0
16.019119024276733,704.0
16.023621082305908,690.0
16.030184984207153,700.0
16.034857034683228,689.0
16.04209804534912,696.0
16.049325942993164,681.0
16.05416202545166,694.0
16.058439016342163,697.0
16.06357216835022,679.0
16.068156003952026,699.0
16.07527995109558,696.0
16.082913875579834,677.0
16.089818000793457,693.0
16.095658779144287,688.0
16.10022211074829,690.0
16.10812497138977,687.0
16.113797903060913,665.0
16.119225025177002,687.0
16.123902082443237,677.0
16.128395795822144,687.0
16.134609937667847,684.0
16.14187979698181,687.0
16.149418830871582,664.0
16.155107975006104,659.0
16.15992784500122,680.0
16.16781711578369,684.0
16.174674034118652,682.0
16.18028497695923,682.0
16.185752868652344,686.0
16.190496921539307,659.0
16.197031021118164,677.0
16.20181894302368,679.0
16.206248998641968,679.0
16.21347689628601,682.0
16.218565940856934,686.0
16.222838878631592,683.0
16.22708010673523,686.0
16.23193097114563,683.0
16.238935947418213,685.0
16.243738889694214,689.0
16.248480796813965,665.0
16.25511598587036,688.0
16.263252019882202,690.0
16.268309831619263,681.0
16.272804975509644,688.0
16.276887893676758,679.0
16.281622886657715,678.0
16.288490772247314,678.0
16.293869018554688,683.0
16.29812479019165,684.0
16.30502486228943,686.0
16.310040950775146,691.0
16.314240217208862,694.0
16.318243980407715,693.0
16.32502007484436,695.0
16.32941198348999,697.0
16.334349870681763,674.0
16.341819047927856,697.0
16.347229957580566,695.0
16.352728843688965,694.0
16.357599020004272,698.0
16.36239981651306,700.0
16.36802387237549,703.0
16.372626066207886,695.0
16.37699604034424,700.0
16.382669925689697,688.0
16.387027978897095,703.0
16.393160104751587,702.0
16.39802312850952,704.0
16.4049129486084,700.0
16.410094022750854,696.0
16.414567947387695,700.0
16.418577909469604,696.0
16.4233717918396,701.0
16.430733919143677,690.0
16.43842601776123,705.0
16.444026947021484,696.0
16.449786901474,704.0
16.45480990409851,700.0
16.459423065185547,704.0
16.46656608581543,719.0
16.471370935440063,701.0
16.476134061813354,695.0
16.483179807662964,709.0
16.48636293411255,688.0
16.49084711074829,707.0
16.495430946350098,699.0
16.49948501586914,704.0
16.504042148590088,695.0
16.50978994369507,677.0
16.51688575744629,695.0
16.521351099014282,692.0
16.52530598640442,691.0
16.53297996520996,688.0
16.53794002532959,685.0
16.542887926101685,672.0
16.550200939178467,678.0
16.555516958236694,681.0
16.560911893844604,686.0
16.565582036972046,671.0
16.572060108184814,689.0
16.579941987991333,660.0
16.58533215522766,684.0
16.59100890159607,681.0
16.595983028411865,667.0
16.601334810256958,664.0
16.608086824417114,682.0
16.612457990646362,678.0
16.61623787879944,683.0
16.620800018310547,656.0
16.626425981521606,677.0
16.63332486152649,678.0
16.638355016708374,679.0
16.643155097961426,678.0
16.647658109664917,680.0
16.654709815979004,674.0
16.66021490097046,678.0
16.66491413116455,677.0
16.671998023986816,681.0
16.677474975585938,655.0
16.68313694000244,682.0
16.688252925872803,682.0
16.692768812179565,689.0
16.699927806854248,681.0
16.704555988311768,696.0
16.708389043807983,688.0
16.712948083877563,687.0
16.717802047729492,686.0
16.7226881980896,683.0
16.727043867111206,686.0
16.732698917388916,695.0
16.737547874450684,689.0
16.742945909500122,662.0
16.749982118606567,687.0
16.754514932632446,667.0
16.758400201797485,689.0
16.762994050979614,676.0
16.76776695251465,669.0
16.774717092514038,690.0
16.779722929000854,693.0
16.784656047821045,692.0
16.79197096824646,689.0
16.799782037734985,687.0
16.805418968200684,700.0
16.81080985069275,696.0
16.815657138824463,684.0
16.82001495361328,700.0
16.826252937316895,706.0
16.833515882492065,697.0
16.838396072387695,672.0
16.842999935150146,697.0
16.850430011749268,706.0
16.858234882354736,703.0
16.863037109375,680.0
16.867037057876587,681.0
16.874459981918335,705.0
16.879340887069702,709.0
16.883450984954834,701.0
16.887990951538086,685.0
16.89198088645935,709.0
16.89957594871521,703.0
16.90495491027832,710.0
16.909770011901855,698.0
16.917034149169922,689.0
16.92429494857788,698.0
16.929052114486694,683.0
16.933045148849487,692.0
16.937667846679688,688.0
16.942891836166382,692.0
16.95000696182251,689.0
16.954986095428467,691.0
16.95958685874939,681.0
16.966924905776978,673.0
16.97438907623291,691.0
16.981159925460815,690.0
16.988106966018677,689.0
16.993664026260376,691.0
16.99781894683838,692.0
17.00507616996765,686.0
17.01049780845642,666.0
17.016443967819214,688.0
17.0210599899292,678.0
17.026143074035645,663.0
17.033118963241577,687.0
17.037991046905518,683.0
17.042760133743286,686.0
17.05029582977295,663.0
17.05816411972046,688.0
17.0627920627594,686.0
17.066861867904663,668.0
17.071380138397217,685.0
17.076174020767212,693.0
17.0830659866333,684.0
17.087830781936646,660.0
17.09180784225464,689.0
17.0967059135437,682.0
17.101058959960938,681.0
17.107648849487305,681.0
17.112202882766724,687.0
17.116564989089966,669.0
17.121607065200806,688.0
17.126474142074585,689.0
17.131397008895874,691.0
17.13827896118164,698.0
17.143468856811523,697.0
17.14801001548767,687.0
17.155071020126343,694.0
17.159964084625244,681.0
17.165048837661743,695.0
17.17235279083252,698.0
17.179655075073242,667.0
17.185331106185913,692.0
17.189879894256592,692.0
17.196819067001343,694.0
17.20149302482605,670.0
17.20614004135132,695.0
17.210181951522827,706.0
17.214566946029663,700.0
17.21850299835205,700.0
17.223303079605103,692.0
17.229882955551147,690.0
17.234757900238037,698.0
17.23961615562439,705.0
17.246653079986572,695.0
17.251561164855957,670.0
17.2598979473114,696.0
17.265316009521484,693.0
17.270792961120605,696.0
17.27594304084778,684.0
17.283472061157227,692.0
17.288482904434204,697.0
17.292781829833984,707.0
17.29955291748047,704.0
17.304280996322632,697.0
17.308372020721436,710.0
17.31291890144348,699.0
17.316893100738525,708.0
17.32121992111206,699.0
17.326158046722412,690.0
17.33334493637085,699.0
17.338407039642334,679.0
17.342943906784058,691.0
17.347625970840454,689.0
17.352018117904663,677.0
17.35682702064514,690.0
17.361200094223022,691.0
17.36598300933838,690.0
17.37084412574768,684.0
17.375920057296753,684.0
17.38302493095398,688.0
17.387773036956787,682.0
17.392627954483032,684.0
17.400110006332397,684.0
17.40546703338623,664.0
17.41096305847168,655.0
17.41581082344055,680.0
17.421239852905273,679.0
17.42620611190796,691.0
17.433295011520386,666.0
17.43812584877014,679.0
17.442171096801758,681.0
17.450423002243042,678.0
17.457923889160156,659.0
17.46243906021118,655.0
17.46697998046875,669.0
17.47472095489502,678.0
17.47947597503662,681.0
17.48419499397278,665.0
17.491638898849487,673.0
17.49697709083557,647.0
17.502453088760376,674.0
17.507354021072388,650.0
17.512717962265015,675.0
17.517557859420776,679.0
17.52501106262207,678.0
17.529850959777832,679.0
17.53458595275879,676.0
17.539366960525513,671.0
17.546325206756592,663.0
17.551681995391846,687.0
17.557633876800537,697.0
17.562198877334595,690.0
17.568152904510498,697.0
17.572991132736206,687.0
17.579921007156372,673.0
17.585280179977417,684.0
17.589555025100708,683.0
17.593849897384644,683.0
17.59842300415039,691.0
17.60503101348877,681.0
17.609922885894775,691.0
17.614238023757935,677.0
17.618892908096313,693.0
17.62307906150818,687.0
17.630241870880127,685.0
17.63557481765747,690.0
17.63984704017639,663.0
17.64670181274414,688.0
17.652095079421997,679.0
17.65765690803528,684.0
17.66221308708191,688.0
17.66811990737915,678.0
17.675390005111694,660.0
17.68340277671814,690.0
17.688765048980713,664.0
17.6941659450531,688.0
17.6990008354187,684.0
17.704447984695435,693.0
17.709434986114502,699.0
17.716593980789185,689.0
17.72088885307312,698.0
17.72474503517151,690.0
17.729338884353638,690.0
17.734430074691772,686.0
17.741557121276855,667.0
17.746705055236816,688.0
17.75122904777527,681.0
17.75833511352539,679.0
17.763258934020996,681.0
17.767834901809692,683.0
17.774429082870483,689.0
17.779941082000732,679.0
17.78536105155945,679.0
17.790228128433228,653.0
17.795020818710327,674.0
17.80125594139099,659.0
17.809439182281494,672.0
17.814124822616577,670.0
17.818109035491943,671.0
17.82532286643982,654.0
17.833006858825684,673.0
17.83738613128662,665.0
17.84194588661194,667.0
17.850017786026,672.0
17.85468292236328,652.0
17.85865092277527,654.0
17.866755962371826,685.0
17.872214794158936,660.0
17.87770104408264,666.0
17.88260293006897,674.0
17.887092113494873,674.0
17.893179893493652,679.0
17.89803409576416,673.0
17.90494990348816,657.0
17.910111904144287,681.0
17.914389848709106,667.0
17.921510934829712,681.0
17.92669987678528,667.0
17.931310892105103,648.0
17.93846583366394,674.0
17.943845987319946,673.0
17.949805974960327,676.0
17.955201864242554,656.0
17.959583044052124,656.0
17.966602087020874,683.0
17.97090482711792,663.0
17.974920988082886,682.0
17.979485034942627,680.0
17.984519958496094,691.0
17.992011785507202,689.0
17.999733209609985,685.0
18.005162954330444,689.0
18.010602951049805,669.0
18.015480995178223,684.0
18.022133111953735,685.0
18.027194023132324,688.0
18.031738996505737,690.0
18.03875994682312,687.0
18.046558141708374,688.0
18.052040100097656,678.0
18.05766201019287,693.0
18.062570095062256,688.0
18.0676908493042,690.0
18.074865102767944,682.0
18.079477071762085,674.0
18.08356213569641,692.0
18.088746786117554,683.0
18.093417167663574,691.0
18.098077058792114,685.0
18.105280876159668,663.0
18.11030387878418,685.0
18.11469292640686,687.0
18.121408939361572,671.0
18.126239776611328,687.0
18.131000995635986,678.0
18.13546395301819,691.0
18.139782905578613,665.0
18.14667797088623,687.0
18.15210509300232,682.0
18.157663822174072,657.0
18.162307024002075,684.0
18.168149948120117,651.0
18.174761056900024,682.0
18.17960000038147,671.0
18.183681964874268,674.0
18.191540002822876,673.0
18.195955991744995,670.0
18.20003890991211,662.0
18.204245805740356,671.0
18.209473848342896,668.0
18.216711044311523,666.0
18.222166776657104,668.0
18.22758197784424,669.0
18.232423067092896,674.0
18.23781704902649,653.0
18.242751121520996,666.0
18.249499082565308,645.0
18.25640892982483,665.0
18.263633966445923,661.0
18.269067764282227,666.0
18.274796962738037,663.0
18.279921054840088,666.0
18.28434705734253,666.0
18.292078971862793,675.0
18.300087928771973,643.0
18.3055419921875,651.0
18.310996055603027,672.0
18.315943002700806,672.0
18.320490837097168,645.0
18.326495885849,674.0
18.331369161605835,668.0
18.338680028915405,637.0
18.34396982192993,637.0
18.34840679168701,659.0
18.355730056762695,642.0
18.36316204071045,665.0
18.368880033493042,658.0
18.373257160186768,667.0
18.38067102432251,671.0
18.388540983200073,655.0
18.39399480819702,676.0
18.399799823760986,680.0
18.404578924179077,678.0
18.409717082977295,681.0
18.416980028152466,682.0
18.424194812774658,683.0
18.429671049118042,684.0
18.435062885284424,685.0
18.43989109992981,684.0
18.446838855743408,692.0
18.451788902282715,687.0
18.45671796798706,685.0
18.463703870773315,661.0
18.471131086349487,689.0
18.476561069488525,684.0
18.482539892196655,683.0
18.487348079681396,689.0
18.492464065551758,668.0
18.49915885925293,664.0
18.50379204750061,677.0
18.507712841033936,685.0
18.512256145477295,681.0
18.5171639919281,669.0
18.524659156799316,687.0
18.52963399887085,682.0
18.534506797790527,683.0
18.542613744735718,686.0
18.549670934677124,663.0
18.55409288406372,697.0
18.55918598175049,690.0
18.566877126693726,685.0
18.571686029434204,695.0
18.57624888420105,696.0
18.583523988723755,692.0
18.588948011398315,685.0
18.59441590309143,691.0
18.599250078201294,683.0
18.604629039764404,673.0
18.609426021575928,678.0
18.616771936416626,672.0
18.6212260723114,681.0
18.62517786026001,679.0
18.629754066467285,676.0
18.63490605354309,672.0
18.63974094390869,673.0
18.64651083946228,648.0
18.651081085205078,681.0
18.655683994293213,646.0
18.660398960113525,673.0
18.664958000183105,660.0
18.67151975631714,673.0
18.67667293548584,678.0
18.681270837783813,648.0
18.68795084953308,672.0
18.692681074142456,645.0
18.700010061264038,669.0
18.705312967300415,666.0
18.710786819458008,668.0
18.715610027313232,670.0
18.72095489501953,681.0
18.725938081741333,665.0
18.733204126358032,674.0
18.73771095275879,678.0
18.741835832595825,670.0
18.746705055236816,674.0
18.75090503692627,647.0
18.75819993019104,669.0
18.762622117996216,667.0
18.766819953918457,671.0
18.77117085456848,648.0
18.776310920715332,640.0
18.783616065979004,674.0
18.790863037109375,669.0
18.796270847320557,669.0
18.801722049713135,659.0
18.806610107421875,651.0
18.813565969467163,677.0
18.818606853485107,678.0
18.822869777679443,682.0
18.827075004577637,676.0
18.831860065460205,683.0
18.838901042938232,661.0
18.846704959869385,682.0
18.852182865142822,683.0
18.85812997817993,658.0
18.862749099731445,678.0
18.867857933044434,688.0
18.874794960021973,686.0
18.879310846328735,660.0
18.88337016105652,682.0
18.88796091079712,689.0
18.893049955368042,682.0
18.900470972061157,692.0
18.908254146575928,666.0
18.913661003112793,688.0
18.919058084487915,684.0
18.923918962478638,683.0
18.930795907974243,683.0
18.938165187835693,686.0
18.9430890083313,685.0
18.948052167892456,679.0
18.955482959747314,687.0
18.96095299720764,669.0
18.966460943222046,669.0
18.971247911453247,676.0
18.976381063461304,694.0
18.983477115631104,685.0
18.988079071044922,695.0
18.992076873779297,686.0
18.999947786331177,660.0
19.005521059036255,681.0
19.010941982269287,679.0
19.01645803451538,683.0
19.02155900001526,676.0
19.02641797065735,677.0
19.031298875808716,645.0
19.037983894348145,665.0
19.043344020843506,671.0
19.047548055648804,667.0
19.05160093307495,658.0
19.05882501602173,666.0
19.066434860229492,669.0
19.07192587852478,653.0
19.077366828918457,673.0
19.082177877426147,656.0
19.08913278579712,672.0
19.096621990203857,673.0
19.10206699371338,677.0
19.10767698287964,668.0
19.112748861312866,668.0
19.117902994155884,656.0
19.124457120895386,652.0
19.12925887107849,643.0
19.1335289478302,667.0
19.138243913650513,667.0
19.142684936523438,657.0
19.149554014205933,666.0
19.15427279472351,658.0
19.15832209587097,666.0
19.16284704208374,666.0
19.167716026306152,666.0
19.174978971481323,676.0
19.17945408821106,658.0
19.184409856796265,662.0
19.19190001487732,664.0
19.19955277442932,640.0
19.205856800079346,668.0
19.210511922836304,673.0
19.214531898498535,674.0
19.21851396560669,677.0
19.22343111038208,671.0
19.228090047836304,676.0
19.23278284072876,681.0
19.237770080566406,663.0
19.2427179813385,684.0
19.250285863876343,687.0
19.257850885391235,686.0
19.263245820999146,690.0
19.2686710357666,689.0
19.273337841033936,659.0
19.279901027679443,661.0
19.28546380996704,660.0
19.290482997894287,665.0
19.29705786705017,686.0
19.302191019058228,682.0
19.306483030319214,671.0
19.313435077667236,689.0
19.318833112716675,670.0
19.324310779571533,686.0
19.32883596420288,692.0
19.334848165512085,684.0
19.34202003479004,687.0
19.350013971328735,656.0
19.35540008544922,668.0
19.360898971557617,684.0
19.36577296257019,685.0
19.37116289138794,665.0
19.37610411643982,693.0
19.383333921432495,691.0
19.38779616355896,692.0
19.391914129257202,690.0
19.399516105651855,689.0
19.404402017593384,695.0
19.408509969711304,684.0
19.41281008720398,691.0
19.41781497001648,687.0
19.425508975982666,663.0
19.432984828948975,685.0
19.437423944473267,665.0
19.441555976867676,684.0
19.446133852005005,684.0
19.451569080352783,677.0
19.45636487007141,658.0
19.46335506439209,680.0
19.468888998031616,677.0
19.473273038864136,679.0
19.480231046676636,646.0
19.485527992248535,651.0
19.491025924682617,669.0
19.496543169021606,670.0
19.501457929611206,645.0
19.508522748947144,652.0
19.515758991241455,651.0
19.521342992782593,681.0
19.52676010131836,679.0
19.531623125076294,677.0
19.538858890533447,672.0
19.546295881271362,663.0
19.5517520904541,672.0
19.55766010284424,675.0
19.56208086013794,672.0
19.566488027572632,675.0
19.57188892364502,676.0
19.577333211898804,681.0
19.58230209350586,681.0
19.589176893234253,675.0
19.59731912612915,670.0
19.605291843414307,648.0
19.61005711555481,668.0
19.614547967910767,666.0
19.618700981140137,665.0
19.623543977737427,676.0
19.63074803352356,674.0
19.638098001480103,663.0
19.64355182647705,681.0
19.64932894706726,676.0
19.653629064559937,690.0
19.65986394882202,687.0
19.66415286064148,692.0
19.668490171432495,656.0
19.674345016479492,666.0
19.67904806137085,694.0
19.68413996696472,689.0
19.69158411026001,687.0
19.696523904800415,685.0
19.701249837875366,683.0
19.708580017089844,677.0
19.716336011886597,683.0
19.721061944961548,686.0
19.725841999053955,662.0
19.73345184326172,684.0
19.73816418647766,685.0
19.742764949798584,688.0
19.750885009765625,685.0
19.75766682624817,689.0
19.762557983398438,680.0
19.7671959400177,684.0
19.77481985092163,662.0
19.77925395965576,684.0
19.78410291671753,672.0
19.791590929031372,685.0
19.7970449924469,688.0
19.80253291130066,692.0
19.807471990585327,695.0
19.812002897262573,697.0
19.81813097000122,666.0
19.825222969055176,686.0
19.83266806602478,691.0
19.838336944580078,675.0
19.843755960464478,691.0
19.84865689277649,689.0
19.855998992919922,680.0
19.86401391029358,689.0
19.871243953704834,693.0
19.876039028167725,675.0
19.883075952529907,660.0
19.88791298866272,672.0
19.89249014854431,648.0
19.899865865707397,673.0
19.905317068099976,676.0
19.91077494621277,679.0
19.915576934814453,671.0
19.92097496986389,663.0
19.925902843475342,675.0
19.93073606491089,676.0
19.935410022735596,679.0
19.94102382659912,676.0
19.945466995239258,668.0
19.95146894454956,671.0
19.958683013916016,673.0
19.966879844665527,674.0
19.972284078598022,674.0
19.977877855300903,682.0
19.982640981674194,671.0
19.988100051879883,665.0
19.992913961410522,668.0
20.000205993652344,670.0
20.004862070083618,645.0
20.00912594795227,677.0
20.016283988952637,678.0
20.020584106445312,668.0
20.02453374862671,669.0
20.02853488922119,679.0
20.03319001197815,675.0
20.038022994995117,680.0
20.04302406311035,669.0
20.047868013381958,668.0
20.05533194541931,676.0
20.060497045516968,674.0
20.06501317024231,684.0
20.072215795516968,679.0
20.079833984375,678.0
20.084872007369995,675.0
20.089324951171875,682.0
20.09638214111328,664.0
20.101684093475342,681.0
20.105976819992065,666.0
20.11013889312744,686.0
20.114271879196167,690.0
20.118427991867065,685.0
20.12333393096924,680.0
20.130258083343506,682.0
20.13538908958435,687.0
20.139482021331787,684.0
20.14414405822754,684.0
20.14871597290039,659.0
20.155350923538208,686.0
20.163245916366577,686.0
20.16872501373291,660.0
20.174333095550537,687.0
20.17947506904602,662.0
20.184324026107788,682.0
20.189194202423096,686.0
20.193817853927612,685.0
20.199377059936523,679.0
20.20418906211853,661.0
20.20929193496704,681.0
20.216770887374878,677.0
20.221556186676025,684.0
20.226212978363037,680.0
20.233739852905273,690.0
20.241525173187256,690.0
20.24675488471985,692.0
20.25083899497986,679.0
20.258202075958252,694.0
20.263251066207886,689.0
20.26794695854187,684.0
20.275362014770508,692.0
20.28272294998169,687.0
20.2881019115448,655.0
20.292853832244873,674.0
20.301109075546265,649.0
20.308106899261475,675.0
20.31249499320984,652.0
20.317585945129395,675.0
20.324941873550415,683.0
20.32953405380249,667.0
20.333518981933594,670.0
20.33787703514099,667.0
20.34302806854248,672.0
20.347405910491943,672.0
20.354719161987305,672.0
20.360119819641113,671.0
20.364705801010132,650.0
20.371549129486084,653.0
20.37697196006775,670.0
20.382681846618652,662.0
20.387578010559082,669.0
20.392619848251343,677.0
20.399767875671387,671.0
20.404362201690674,675.0
20.40838098526001,676.0
20.412925958633423,669.0
20.4177188873291,671.0
20.425008058547974,670.0
20.430147886276245,645.0
20.43488597869873,669.0
20.43940806388855,668.0
20.443541049957275,666.0
20.447776794433594,658.0
20.452139854431152,670.0
20.45813012123108,673.0
20.46248197555542,665.0
20.467487812042236,673.0
20.474467992782593,670.0
20.47923994064331,671.0
20.483262062072754,672.0
20.487831830978394,673.0
20.492939949035645,657.0
20.50010085105896,673.0
20.504689931869507,676.0
20.508721113204956,660.0
20.516446113586426,678.0
20.521322011947632,692.0
20.52516198158264,679.0
20.53006386756897,681.0
20.534656763076782,682.0
20.5394229888916,682.0
20.543576955795288,663.0
20.54811716079712,682.0
20.554805040359497,679.0
20.560014009475708,670.0
20.564076900482178,684.0
20.568478107452393,677.0
20.57237696647644,689.0
20.57674503326416,680.0
20.58267879486084,672.0
20.5870680809021,685.0
20.59315013885498,677.0
20.59797477722168,678.0
20.605180025100708,684.0
20.610464811325073,676.0
20.614866018295288,655.0
20.621978998184204,690.0
20.62966299057007,662.0
20.635111093521118,685.0
20.6426100730896,661.0
20.648582935333252,688.0
20.65370202064514,695.0
20.658111095428467,688.0
20.66356587409973,681.0
20.66833806037903,670.0
20.673187971115112,682.0
20.68052101135254,676.0
20.68873691558838,678.0
20.696594953536987,672.0
20.70148205757141,660.0
20.70611000061035,675.0
20.71385097503662,681.0
20.721492052078247,669.0
20.72634506225586,672.0
20.730982065200806,670.0
20.735764026641846,668.0
20.740456104278564,673.0
20.74732995033264,664.0
20.754719734191895,657.0
20.760252952575684,667.0
20.76603889465332,676.0
20.770413875579834,668.0
20.775137901306152,672.0
20.780762910842896,658.0
20.788079023361206,669.0
20.7932288646698,670.0
20.8002290725708,642.0
20.80558490753174,660.0
20.811002016067505,662.0
20.815865993499756,664.0
20.821239948272705,668.0
20.826474905014038,665.0
20.831369161605835,670.0
20.83809804916382,666.0
20.843221187591553,664.0
20.84726595878601,660.0
20.851284980773926,663.0
20.859430074691772,647.0
20.864010095596313,666.0
20.868364810943604,664.0
20.87271785736084,663.0
20.879945039749146,663.0
20.885387897491455,651.0
20.890965938568115,668.0
20.896418809890747,648.0
20.901323795318604,672.0
20.906196117401123,652.0
20.913227796554565,672.0
20.918601989746094,678.0
20.923519134521484,683.0
20.930901765823364,666.0
20.93635106086731,679.0
20.942627906799316,680.0
20.949955940246582,680.0
20.95513606071472,682.0
20.960127115249634,684.0
20.96492290496826,652.0
20.971992015838623,655.0
20.977458953857422,677.0
20.983105897903442,680.0
20.988327980041504,690.0
20.99269390106201,689.0
20.999995946884155,671.0
21.00441002845764,680.0
21.008121013641357,682.0
21.012677907943726,674.0
21.017562866210938,685.0
21.02503991127014,673.0
21.030601024627686,669.0
21.03487491607666,675.0
21.03949809074402,676.0
21.046677112579346,681.0
21.052401065826416,681.0
21.058154106140137,683.0
21.06298518180847,660.0
21.06833791732788,683.0
21.07320785522461,691.0
21.080254077911377,684.0
21.088381052017212,684.0
21.093930959701538,684.0
21.09978199005127,674.0
21.1043701171875,650.0
21.10946297645569,673.0
21.116736888885498,668.0
21.1214280128479,674.0
21.1262309551239,657.0
21.13084888458252,669.0
21.13795804977417,670.0
21.14358377456665,668.0
21.149353981018066,667.0
21.15385890007019,640.0
21.1597421169281,662.0
21.16672396659851,667.0
21.17146611213684,652.0
21.176192045211792,652.0
21.184190034866333,657.0
21.19152808189392,658.0
21.19607901573181,658.0
21.20014715194702,655.0
21.205153942108154,664.0
21.209574937820435,644.0
21.216611862182617,635.0
21.2209210395813,653.0
21.224918842315674,656.0
21.23150396347046,659.0
21.237081050872803,668.0
21.241394996643066,668.0
21.24599003791809,657.0
21.249930143356323,663.0
21.254503965377808,664.0
21.259877920150757,648.0
21.266947984695435,657.0
21.274314880371094,655.0
21.279999017715454,656.0
21.284576892852783,626.0
21.290503978729248,655.0
21.296602964401245,653.0
21.301300048828125,648.0
21.307941913604736,658.0
21.312307119369507,663.0
21.316086769104004,659.0
21.320149183273315,659.0
21.324792861938477,651.0
21.330279111862183,664.0
21.335136890411377,667.0
21.33999490737915,671.0
21.34678888320923,661.0
21.351500988006592,668.0
21.355515003204346,671.0
21.360361099243164,674.0
21.365221977233887,672.0
21.37215805053711,674.0
21.37711501121521,647.0
21.381393909454346,670.0
21.387999057769775,674.0
21.392870903015137,677.0
21.400134086608887,658.0
21.405567169189453,652.0
21.411026000976562,674.0
21.415894985198975,679.0
21.420247793197632,651.0
21.426492929458618,676.0
21.43375301361084,656.0
21.44168210029602,674.0
21.447051763534546,647.0
21.452462911605835,671.0
21.45736002922058,678.0
21.462976932525635,671.0
21.467907905578613,675.0
21.474889039993286,681.0
21.479494094848633,673.0
21.483728885650635,670.0
21.49095582962036,677.0
21.49544095993042,675.0
21.499599933624268,656.0
21.50375485420227,672.0
21.50745677947998,657.0
21.51401400566101,672.0
21.521601915359497,669.0
21.52643585205078,645.0
21.53110694885254,668.0
21.53842282295227,677.0
21.544020175933838,646.0
21.549826860427856,667.0
21.554589986801147,665.0
21.559722185134888,665.0
21.566658973693848,668.0
21.570997953414917,645.0
21.574978828430176,651.0
21.579598903656006,646.0
21.584676027297974,639.0
21.58949899673462,636.0
21.596519947052002,660.0
21.601829051971436,663.0
21.60596203804016,672.0
21.61015295982361,660.0
21.614717960357666,656.0
21.621195793151855,667.0
21.626734018325806,665.0
21.63114619255066,667.0
21.635334968566895,646.0
21.639532804489136,677.0
21.646557092666626,667.0
21.651526927947998,664.0
21.65805697441101,668.0
21.663055896759033,658.0
21.667720079421997,664.0
21.67490792274475,664.0
21.680368900299072,661.0
21.68583583831787,659.0
21.690712928771973,656.0
21.695148944854736,665.0
21.701425075531006,666.0
21.709386110305786,663.0
21.71645498275757,676.0
21.72192907333374,672.0
21.727381944656372,649.0
21.73220992088318,654.0
21.736811876296997,673.0
21.743056058883667,677.0
21.750400066375732,676.0
21.75782299041748,686.0
21.76324701309204,668.0
21.768725156784058,679.0
21.77352499961853,679.0
21.780597925186157,676.0
21.78791308403015,677.0
21.793321132659912,660.0
21.80047297477722,670.0
21.807520866394043,676.0
21.812373876571655,678.0
21.816658973693848,679.0
21.8214271068573,678.0
21.826084852218628,684.0
21.834369897842407,676.0
21.841737031936646,670.0
21.84663701057434,677.0
21.85159683227539,668.0
21.856597900390625,677.0
21.8640079498291,663.0
21.87171697616577,673.0
21.87707495689392,676.0
21.882769107818604,685.0
21.88755202293396,665.0
21.892719984054565,676.0
21.899927854537964,681.0
21.905154943466187,654.0
21.909384965896606,677.0
21.91900396347046,685.0
21.92481279373169,680.0
21.929946899414062,676.0
21.934401988983154,651.0
21.941860914230347,681.0
21.946722984313965,672.0
21.95138907432556,665.0
21.95617699623108,648.0
21.963361978530884,663.0
21.968760013580322,659.0
21.9738290309906,657.0
21.978600025177002,658.0
21.98287296295166,659.0
21.987503051757812,664.0
21.99162983894348,664.0
21.997464895248413,667.0
22.001662969589233,669.0
22.006899118423462,669.0
22.012003898620605,637.0
22.01614809036255,660.0
22.021045923233032,661.0
22.024909019470215,628.0
22.030489921569824,654.0
22.03485608100891,657.0
22.042805910110474,665.0
22.047412157058716,631.0
22.05173897743225,635.0
22.056334972381592,658.0
22.063885927200317,657.0
22.071527004241943,653.0
22.07700800895691,632.0
22.082656860351562,648.0
22.08741784095764,658.0
22.092563152313232,662.0
22.099915981292725,654.0
22.105162858963013,652.0
22.109575986862183,646.0
22.11391592025757,649.0
22.11875605583191,652.0
22.123202800750732,646.0
22.130786895751953,646.0
22.13895583152771,644.0
22.146915912628174,654.0
22.15185809135437,654.0
22.156449794769287,666.0
22.16396713256836,664.0
22.171701908111572,663.0
22.177103996276855,673.0
22.18173599243164,663.0
22.189337968826294,670.0
22.19511580467224,663.0
22.199794054031372,653.0
22.205183029174805,679.0
22.21043586730957,676.0
22.215322971343994,666.0
22.220024824142456,670.0
22.226252794265747,662.0
22.233694076538086,672.0
22.241616010665894,670.0
22.24691891670227,667.0
22.25235390663147,644.0
22.257195949554443,672.0
22.264362812042236,663.0
22.272080898284912,669.0
22.27754306793213,669.0
22.283130884170532,676.0
22.288115978240967,653.0
22.29298186302185,664.0
22.299968957901,645.0
22.304603099822998,647.0
22.308642864227295,671.0
22.316842794418335,681.0
22.324289798736572,679.0
22.32993793487549,655.0
22.335370779037476,678.0
22.34020209312439,679.0
22.346863985061646,666.0
22.351778984069824,673.0
22.355802059173584,673.0
22.360208988189697,660.0
22.36509394645691,678.0
22.371723890304565,668.0
22.376522064208984,664.0
22.38153886795044,644.0
22.38881802558899,665.0
22.393613815307617,674.0
22.397938013076782,670.0
22.40201687812805,651.0
22.40603995323181,636.0
22.4134681224823,660.0
22.418794870376587,660.0
22.423853874206543,662.0
22.428657054901123,661.0
22.43283200263977,667.0
22.437124967575073,633.0
22.441832065582275,660.0
22.446609020233154,652.0
22.451576948165894,663.0
22.45616602897644,666.0
22.4633948802948,639.0
22.468331813812256,656.0
22.473039865493774,656.0
22.480074882507324,655.0
22.485512018203735,651.0
22.491023063659668,637.0
22.49601912498474,656.0
22.501139163970947,656.0
22.508544921875,663.0
22.513335943222046,669.0
22.51802897453308,664.0
22.52543807029724,662.0
22.533616065979004,635.0
22.538508892059326,653.0
22.54260015487671,656.0
22.551005125045776,639.0
22.55837082862854,661.0
22.563525915145874,659.0
22.567999124526978,662.0
22.574831008911133,639.0
22.579640865325928,669.0
22.583794116973877,665.0
22.591665983200073,668.0
22.597184896469116,677.0
22.602591037750244,674.0
22.607423067092896,675.0
22.611901998519897,645.0
22.61818504333496,653.0
22.62313413619995,668.0
22.630337953567505,656.0
22.638416051864624,654.0
22.643829822540283,648.0
22.649331092834473,670.0
22.65389084815979,652.0
22.659825086593628,672.0
22.664654970169067,674.0
22.671656131744385,679.0
22.67681384086609,675.0
22.681421995162964,648.0
22.688540935516357,673.0
22.694028854370117,676.0
22.699795961380005,667.0
22.704704761505127,668.0
22.709691047668457,674.0
22.714541912078857,667.0
22.72170090675354,667.0
22.727463960647583,672.0
22.731969833374023,679.0
22.73863196372986,682.0
22.74672508239746,680.0
22.752629041671753,663.0
22.756757020950317,680.0
22.763581037521362,658.0
22.771144151687622,682.0
22.776592016220093,675.0
22.781970977783203,680.0
22.787079095840454,676.0
22.791477918624878,663.0
22.796841144561768,671.0
22.802207946777344,639.0
22.807193994522095,637.0
22.81378698348999,660.0
22.821829080581665,659.0
22.827173948287964,665.0
22.83271312713623,669.0
22.837153911590576,636.0
22.843097925186157,660.0
22.84803605079651,665.0
22.85494303703308,659.0
22.860027074813843,670.0
22.864853143692017,659.0
22.872044801712036,647.0
22.880136013031006,639.0
22.885677814483643,660.0
22.89021396636963,665.0
22.896703004837036,666.0
22.90228295326233,671.0
22.908136129379272,646.0
22.912979125976562,661.0
22.918011903762817,662.0
22.92522096633911,663.0
22.929642915725708,662.0
22.93365788459778,662.0
22.94128394126892,646.0
22.9459490776062,654.0
22.950239896774292,659.0
22.954591035842896,656.0
22.958838939666748,664.0
22.966119050979614,667.0
22.97107696533203,644.0
22.975167989730835,655.0
22.979954957962036,656.0
22.984675884246826,660.0
22.99260401725769,661.0
23.000071048736572,637.0
23.0049569606781,663.0
23.00926899909973,650.0
23.016068935394287,649.0
23.020348072052002,668.0
23.024430990219116,673.0
23.028582096099854,674.0
23.033541917800903,679.0
23.038058757781982,670.0
23.0434410572052,671.0
23.04828405380249,672.0
23.055007934570312,675.0
23.059972047805786,675.0
23.064341068267822,644.0
23.068480968475342,669.0
23.0733540058136,679.0
23.080576181411743,673.0
23.088263988494873,671.0
23.093727827072144,672.0
23.09933614730835,668.0
23.10463285446167,666.0
23.10969614982605,672.0
23.116666078567505,654.0
23.121274948120117,675.0
23.12534213066101,669.0
23.133540868759155,671.0
23.141159057617188,647.0
23.146013021469116,670.0
23.149971961975098,677.0
23.154482126235962,670.0
23.159379959106445,675.0
23.166960954666138,684.0
23.17425012588501,674.0
23.179615020751953,668.0
23.18503999710083,679.0
23.18990182876587,664.0
23.197141885757446,670.0
23.202213048934937,669.0
23.207077026367188,664.0
23.214305877685547,661.0
23.222059965133667,662.0
23.22703981399536,658.0
23.231600046157837,633.0
23.23853611946106,651.0
23.24361515045166,663.0
23.248642921447754,665.0
23.252969980239868,660.0
23.257126092910767,659.0
23.262372970581055,657.0
23.266647815704346,660.0
23.27257800102234,634.0
23.27677893638611,655.0
23.281875133514404,658.0
23.28899598121643,652.0
23.296988010406494,629.0
23.30250096321106,656.0
23.30814504623413,654.0
23.313470125198364,652.0
23.317854166030884,654.0
23.325204133987427,657.0
23.33038306236267,657.0
23.335102081298828,650.0
23.33977508544922,655.0
23.346977949142456,662.0
23.355297803878784,652.0
23.36088991165161,651.0
23.36585307121277,656.0
23.370956897735596,655.0
23.375276803970337,658.0
23.383118867874146,653.0
23.388509035110474,652.0
23.393930912017822,655.0
23.398653030395508,652.0
23.404034852981567,658.0
23.409132957458496,657.0
23.413930892944336,641.0
23.418736934661865,633.0
23.424339056015015,650.0
23.429594039916992,659.0
23.43471598625183,660.0
23.442997932434082,657.0
23.447372913360596,657.0
23.451743841171265,660.0
23.456700086593628,643.0
23.464207887649536,663.0
23.47209882736206,651.0
23.4772629737854,660.0
23.48166799545288,639.0
23.488770961761475,649.0
23.493531942367554,666.0
23.49858593940735,650.0
23.50345206260681,671.0
23.50779891014099,662.0
23.512833833694458,670.0
23.51754879951477,665.0
23.524853944778442,653.0
23.53024387359619,664.0
23.535672903060913,653.0
23.540507078170776,666.0
23.54593586921692,663.0
23.550801038742065,638.0
23.558073043823242,664.0
23.56329584121704,666.0
23.568021774291992,660.0
23.57633090019226,673.0
23.582313060760498,668.0
23.587426900863647,681.0
23.592516899108887,671.0
23.60007095336914,651.0
23.605149030685425,677.0
23.609375953674316,669.0
23.616903066635132,663.0
23.624783039093018,643.0
23.629520893096924,663.0
23.63350796699524,661.0
23.638025045394897,662.0
23.642738103866577,648.0
23.650042057037354,663.0
23.654711961746216,657.0
23.65866208076477,660.0
23.66647481918335,656.0
23.6721351146698,660.0
23.677541971206665,664.0
23.683114767074585,656.0
23.688047885894775,655.0
23.69298005104065,659.0
23.698214054107666,631.0
23.705940008163452,655.0
23.713475942611694,659.0
23.718944787979126,651.0
23.724797010421753,655.0
23.730310916900635,651.0
23.734603881835938,655.0
23.73954486846924,647.0
23.743937969207764,632.0
23.749791145324707,630.0
23.755281925201416,644.0
23.759626865386963,660.0
23.76700782775879,658.0
23.7747859954834,660.0
23.78048014640808,662.0
23.785461902618408,657.0
23.791002988815308,655.0
23.795363903045654,660.0
23.801531076431274,651.0
23.80651092529297,653.0
23.813277006149292,631.0
23.81791591644287,629.0
23.822470903396606,662.0
23.827159881591797,657.0
23.831520795822144,661.0
23.83920693397522,660.0
23.846742868423462,663.0
23.85218906402588,667.0
23.8581600189209,639.0
23.86323595046997,667.0
23.867748022079468,664.0
23.87531089782715,647.0
23.882888078689575,666.0
23.88824200630188,670.0
23.893628120422363,665.0
23.89844274520874,668.0
23.905740976333618,673.0
23.913213968276978,666.0
23.91867995262146,672.0
23.924339056015015,669.0
23.929373025894165,674.0
23.934424877166748,644.0
23.939218997955322,670.0
23.943613052368164,671.0
23.949354887008667,663.0
23.954344034194946,672.0
23.95950198173523,670.0
23.96717596054077,651.0
23.975904941558838,664.0
23.983500957489014,647.0
23.98825192451477,668.0
23.99298596382141,666.0
24.000279903411865,659.0
24.008227825164795,669.0
24.01391291618347,674.0
24.018862009048462,666.0
24.02483582496643,673.0
24.029931783676147,673.0
24.034392833709717,667.0
24.04197382926941,680.0
24.05013394355774,671.0
24.055551052093506,665.0
24.06091618537903,660.0
24.065927982330322,659.0
24.07046890258789,651.0
24.076292037963867,653.0
24.08378005027771,640.0
24.091831922531128,653.0
24.097185850143433,650.0
24.102602005004883,651.0
24.107414960861206,645.0
24.11289691925049,649.0
24.117775917053223,644.0
24.125048875808716,625.0
24.130204916000366,658.0
24.134827852249146,630.0
24.13915514945984,647.0
24.143460035324097,656.0
24.148321866989136,656.0
24.153175830841064,650.0
24.15766477584839,655.0
24.162031888961792,629.0
24.16814613342285,652.0
24.172970056533813,655.0
24.18018102645874,646.0
24.18536686897278,639.0
24.18994688987732,622.0
24.19670796394348,646.0
24.201592922210693,637.0
24.20629382133484,652.0
24.213409900665283,643.0
24.218833923339844,616.0
24.22480607032776,647.0
24.229722023010254,649.0
24.234715938568115,641.0
24.23950505256653,643.0
24.246855974197388,645.0
24.251850843429565,647.0
24.256309747695923,644.0
24.26300287246704,638.0
24.268118858337402,658.0
24.27291202545166,656.0
24.279837131500244,658.0
24.285722970962524,652.0
24.29026699066162,644.0
24.297521114349365,662.0
24.30477809906006,666.0
24.30935788154602,662.0
24.31668210029602,661.0
24.322079181671143,670.0
24.327571153640747,662.0
24.331989765167236,639.0
24.339040756225586,662.0
24.34548282623291,661.0
24.34967589378357,646.0
24.35387897491455,660.0
24.35800790786743,660.0
24.362560033798218,667.0
24.367727041244507,660.0
24.3752179145813,666.0
24.379899978637695,669.0
24.384246826171875,661.0
24.391592025756836,668.0
24.395024061203003,666.0
24.399802923202515,657.0
24.40432095527649,664.0
24.408355951309204,646.0
24.412919998168945,661.0
24.41772198677063,663.0
24.424962997436523,661.0
24.42964005470276,667.0
24.43378186225891,675.0
24.44117307662964,669.0
24.445796966552734,674.0
24.449552059173584,674.0
24.45371103286743,676.0
24.457454919815063,667.0
24.46184206008911,661.0
24.468204975128174,664.0
24.47295093536377,641.0
24.4797580242157,658.0
24.48442792892456,645.0
24.490921020507812,627.0
24.495720148086548,652.0
24.499759912490845,652.0
24.504705905914307,652.0
24.509704113006592,657.0
24.517558813095093,655.0
24.525305032730103,654.0
24.533005952835083,662.0
24.538455963134766,628.0
24.54394507408142,643.0
24.548777103424072,624.0
24.553887128829956,623.0
24.558745861053467,623.0
24.56634497642517,658.0
24.571280002593994,635.0
24.57607102394104,624.0
24.580490112304688,625.0
24.584867000579834,659.0
24.589349031448364,658.0
24.596928119659424,649.0
24.60205888748169,627.0
24.606471061706543,630.0
24.613265991210938,642.0
24.618668794631958,636.0
24.62435793876648,628.0
24.62929081916809,651.0
24.63434600830078,652.0
24.641247034072876,652.0
24.646538019180298,626.0
24.651423931121826,615.0
24.659493923187256,647.0
24.666669845581055,641.0
24.671777963638306,645.0
24.67627716064453,648.0
24.683478832244873,653.0
24.68848490715027,649.0
24.692734003067017,651.0
24.700021028518677,655.0
24.705360889434814,653.0
24.71083402633667,655.0
24.715986967086792,658.0
24.720651865005493,667.0
24.72644591331482,661.0
24.733834743499756,659.0
24.742117881774902,656.0
24.750094890594482,635.0
24.754951000213623,658.0
24.759589910507202,637.0
24.76676297187805,655.0
24.77177405357361,657.0
24.775845050811768,656.0
24.782765865325928,643.0
24.789162158966064,649.0
24.7936270236969,654.0
24.798500061035156,658.0
24.80550193786621,658.0
24.810884952545166,650.0
24.81540012359619,651.0
24.822443962097168,626.0
24.830218076705933,653.0
24.83561396598816,626.0
24.841466903686523,654.0
24.846219778060913,656.0
24.851329803466797,659.0
24.856170892715454,666.0
24.86052703857422,669.0
24.86646795272827,643.0
24.871583938598633,667.0
24.87607192993164,661.0
24.88354182243347,656.0
24.888251066207886,629.0
24.89246702194214,652.0
24.899551153182983,650.0
24.90372109413147,631.0
24.90800404548645,644.0
24.912210941314697,643.0
24.91627311706543,644.0
24.921515941619873,641.0
24.926292181015015,641.0
24.93348002433777,638.0
24.938408136367798,639.0
24.94278907775879,643.0
24.950947999954224,644.0
24.95797300338745,655.0
24.96280312538147,635.0
24.9666850566864,647.0
24.972025871276855,649.0
24.9769229888916,648.0
24.981786966323853,650.0
24.986671924591064,646.0
24.991468906402588,650.0
24.996802806854248,645.0
25.001505851745605,643.0
25.007455110549927,648.0
25.012322902679443,626.0
25.017502069473267,653.0
25.025207996368408,647.0
25.033097982406616,648.0
25.038769960403442,647.0
25.04421591758728,651.0
25.049179077148438,647.0
25.056629180908203,654.0
25.062137842178345,653.0
25.066250801086426,624.0
25.07054901123047,640.0
25.074728965759277,647.0
25.079396963119507,646.0
25.084625959396362,627.0
25.092082977294922,654.0
25.099348068237305,645.0
25.10506796836853,632.0
25.110102891921997,654.0
25.115005016326904,663.0
25.122658014297485,655.0
25.130624771118164,665.0
25.138840913772583,657.0
25.14654302597046,661.0
25.15189480781555,665.0
25.15769100189209,667.0
25.164888858795166,636.0
25.170289993286133,641.0
25.174407958984375,657.0
25.178526163101196,658.0
25.182637929916382,661.0
25.18954300880432,669.0
25.195413827896118,664.0
25.199881076812744,665.0
25.204941987991333,660.0
25.209282875061035,660.0
25.216873168945312,661.0
25.2222318649292,670.0
25.2276828289032,663.0
25.232569932937622,661.0
25.239402055740356,664.0
25.24669599533081,661.0
25.251742124557495,660.0
25.256550073623657,658.0
25.263813972473145,665.0
25.27194309234619,672.0
25.2799870967865,661.0
25.285388946533203,655.0
25.290997982025146,670.0
25.29543900489807,660.0
25.301532983779907,673.0
25.306334018707275,669.0
25.313485860824585,661.0
25.318274974822998,664.0
25.322816848754883,647.0
25.326807975769043,663.0
25.33094310760498,656.0
25.335317134857178,665.0
25.341003894805908,654.0
25.345431804656982,656.0
25.351032972335815,656.0
25.357830047607422,661.0
25.36234188079834,653.0
25.366047859191895,655.0
25.370589017868042,623.0
25.376452922821045,650.0
25.38134789466858,654.0
25.38848090171814,637.0
25.39329195022583,647.0
25.40107774734497,654.0
25.407765865325928,657.0
25.412266969680786,650.0
25.417101860046387,650.0
25.42438578605652,652.0
25.42954683303833,655.0
25.433746099472046,643.0
25.441548824310303,653.0
25.446902990341187,652.0
25.452362060546875,651.0
25.45718002319336,651.0
25.462560892105103,648.0
25.46764898300171,649.0
25.47480797767639,649.0
25.47955298423767,630.0
25.483334064483643,644.0
25.487339973449707,647.0
25.492573976516724,623.0
25.499490976333618,642.0
25.504172801971436,647.0
25.507858991622925,649.0
25.512410879135132,658.0
25.51760697364807,652.0
25.524444103240967,632.0
25.52883219718933,658.0
25.532619953155518,630.0
25.53716802597046,655.0
25.542962074279785,657.0
25.54780411720276,660.0
25.552321910858154,660.0
25.557323932647705,640.0
25.562581062316895,659.0
25.5676691532135,662.0
25.57521915435791,663.0
25.582997798919678,661.0
25.58863592147827,668.0
25.5940420627594,654.0
25.598861932754517,661.0
25.60368299484253,657.0
25.60982394218445,643.0
25.617695808410645,664.0
25.624600887298584,665.0
25.630016803741455,650.0
25.635451078414917,661.0
25.640309810638428,663.0
25.645664930343628,649.0
25.65049409866333,661.0
25.65791392326355,652.0
25.66285800933838,656.0
25.6666419506073,657.0
25.67113995552063,647.0
25.676033973693848,664.0
25.683167934417725,665.0
25.68775200843811,657.0
25.69186806678772,664.0
25.696115970611572,668.0
25.70116114616394,667.0
25.706018924713135,667.0
25.710618019104004,654.0
25.715531826019287,667.0
25.720283031463623,665.0
25.726517915725708,661.0
25.731563806533813,653.0
25.73891282081604,663.0
25.743722200393677,653.0
25.748749017715454,626.0
25.755901098251343,655.0
25.76188898086548,624.0
25.766473054885864,644.0
25.771950006484985,647.0
25.776818990707397,654.0
25.781685829162598,641.0
25.788743019104004,643.0
25.793803930282593,647.0
25.798306941986084,628.0
25.805236101150513,627.0
25.810030937194824,650.0
25.815062999725342,623.0
25.82010793685913,645.0
25.824705839157104,651.0
25.830206155776978,617.0
25.834755897521973,627.0
25.841882944107056,645.0
25.849617958068848,626.0
25.854554891586304,637.0
25.85875391960144,646.0
25.86699891090393,647.0
25.874671936035156,657.0
25.879992961883545,638.0
25.884655952453613,648.0
25.892157077789307,638.0
25.900022983551025,641.0
25.905154943466187,622.0
25.909209966659546,638.0
25.916661977767944,616.0
25.920918941497803,639.0
25.92514181137085,643.0
25.92990803718567,644.0
25.934206008911133,633.0
25.940838098526,645.0
25.945592880249023,647.0
25.949404001235962,652.0
25.953518867492676,626.0
25.95815896987915,654.0
25.963214874267578,650.0
25.968010902404785,639.0
25.975297927856445,653.0
25.982614994049072,654.0
25.988073110580444,664.0
25.99351477622986,625.0
25.998440980911255,648.0
26.005616903305054,651.0
26.013033151626587,639.0
26.018728971481323,646.0
26.023520946502686,653.0
26.03107500076294,651.0
26.03657102584839,648.0
26.040684938430786,657.0
26.047791957855225,653.0
26.055061101913452,645.0
26.06044292449951,650.0
26.066002130508423,656.0
26.071166038513184,652.0
26.07620906829834,657.0
26.084471940994263,624.0
26.08913016319275,648.0
26.093321084976196,642.0
26.09802508354187,642.0
26.104726791381836,651.0
26.11023712158203,657.0
26.115840196609497,633.0
26.12136697769165,662.0
26.12627387046814,662.0
26.133769989013672,659.0
26.14124083518982,651.0
26.146718978881836,633.0
26.152182817459106,651.0
26.157170057296753,645.0
26.164350032806396,649.0
26.170016765594482,644.0
26.174669981002808,621.0
26.17943000793457,644.0
26.183818817138672,632.0
26.191208124160767,645.0
26.19448208808899,646.0
26.199263095855713,654.0
26.203470945358276,649.0
26.208181142807007,641.0
26.212559938430786,645.0
26.21763801574707,619.0
26.22293210029602,641.0
26.230128049850464,625.0
26.23504400253296,642.0
26.239930868148804,643.0
26.246865034103394,624.0
26.254863023757935,638.0
26.260127782821655,643.0
26.264397859573364,647.0
26.268723011016846,644.0
26.273180961608887,648.0
26.280123949050903,649.0
26.285211086273193,645.0
26.290158987045288,641.0
26.297171115875244,646.0
26.30493998527527,645.0
26.310276985168457,646.0
26.314610958099365,644.0
26.32156491279602,647.0
26.326385974884033,617.0
26.333152770996094,641.0
26.338538885116577,645.0
26.34396505355835,642.0
26.348899841308594,619.0
26.356422901153564,648.0
26.36429715156555,624.0
26.369672060012817,624.0
26.37581706047058,632.0
26.383196115493774,625.0
26.38826298713684,652.0
26.39308190345764,657.0
26.401100873947144,647.0
26.40824580192566,661.0
26.413002014160156,658.0
26.418002128601074,667.0
26.422411918640137,661.0
26.426735877990723,647.0
26.43269395828247,655.0
26.43802309036255,657.0
26.44238305091858,656.0
26.449876070022583,659.0
26.454329013824463,651.0
26.45833992958069,657.0
26.462526082992554,667.0
26.467605113983154,658.0
26.47492003440857,663.0
26.47962188720703,649.0
26.483629941940308,666.0
26.49101996421814,649.0
26.495957136154175,661.0
26.500853061676025,655.0
26.509264945983887,637.0
26.51669692993164,660.0
26.521764039993286,656.0
26.5262291431427,663.0
26.533784866333008,651.0
26.541345834732056,659.0
26.54690909385681,668.0
26.552295923233032,665.0
26.557013034820557,660.0
26.563996076583862,666.0
26.56891703605652,661.0
26.573376893997192,646.0
26.579944133758545,658.0
26.584975004196167,655.0
26.589457988739014,652.0
26.59370517730713,650.0
26.59773302078247,651.0
26.60204291343689,620.0
26.607711791992188,642.0
26.613196849822998,644.0
26.618050813674927,643.0
26.625829935073853,643.0
26.633415937423706,619.0
26.639050006866455,641.0
26.64451503753662,619.0
