time,emg
0.011402130126953125,697.0
0.024356842041015625,716.0
0.04025411605834961,705.0
0.04931783676147461,713.0
0.05987215042114258,710.0
0.06430792808532715,690.0
0.06912803649902344,725.0
0.07338500022888184,714.0
0.08045077323913574,691.0
0.0875859260559082,704.0
0.0927131175994873,685.0
0.0973348617553711,696.0
0.10430288314819336,693.0
0.1095738410949707,691.0
0.1170339584350586,663.0
0.12135982513427734,692.0
0.12540197372436523,697.0
0.13231587409973145,705.0
0.13752508163452148,695.0
0.14163804054260254,697.0
0.14822101593017578,686.0
0.1532890796661377,700.0
0.15702414512634277,705.0
0.16146278381347656,698.0
0.16513895988464355,668.0
0.17147183418273926,680.0
0.17913508415222168,685.0
0.18451380729675293,677.0
0.19206786155700684,671.0
0.196213960647583,653.0
0.20067095756530762,668.0
0.20792889595031738,663.0
0.21305394172668457,664.0
0.21783995628356934,674.0
0.225754976272583,689.0
0.2306828498840332,684.0
0.2377490997314453,692.0
0.2452249526977539,706.0
0.25118398666381836,694.0
0.2557699680328369,676.0
0.26291584968566895,694.0
0.26807188987731934,707.0
0.27294301986694336,708.0
0.28059983253479004,713.0
0.28673291206359863,711.0
0.29158902168273926,722.0
0.29913878440856934,724.0
0.30435800552368164,728.0
0.3089108467102051,719.0
0.31626200675964355,734.0
0.32122302055358887,717.0
0.3255429267883301,741.0
0.332766056060791,743.0
0.34012699127197266,742.0
0.3471958637237549,739.0
0.3525969982147217,739.0
0.357144832611084,737.0
0.3621189594268799,722.0
0.3669850826263428,732.0
0.37157201766967773,717.0
0.3760819435119629,706.0
0.3838207721710205,706.0
0.3918309211730957,711.0
0.3994159698486328,710.0
0.4075741767883301,705.0
0.41611814498901367,718.0
0.42444705963134766,729.0
0.42965102195739746,726.0
0.43722081184387207,720.0
0.4425690174102783,709.0
0.4478130340576172,731.0
0.4549109935760498,718.0
0.46123504638671875,742.0
0.465850830078125,745.0
0.47049713134765625,732.0
0.47430992126464844,728.0
0.4793281555175781,725.0
0.48380494117736816,723.0
0.4906430244445801,712.0
0.4957139492034912,727.0
0.4995880126953125,726.0
0.5069429874420166,713.0
0.5120320320129395,727.0
0.516218900680542,730.0
0.5210468769073486,736.0
0.5254039764404297,729.0
0.5323138236999512,738.0
0.5372629165649414,735.0
0.5411388874053955,734.0
0.5482230186462402,740.0
0.5550699234008789,740.0
0.562899112701416,730.0
0.5680530071258545,718.0
0.5725278854370117,720.0
0.5795180797576904,723.0
0.584395170211792,718.0
0.5923459529876709,725.0
0.5971081256866455,717.0
0.6044638156890869,689.0
0.6133010387420654,734.0
0.621783971786499,731.0
0.6283080577850342,745.0
0.6333849430084229,744.0
0.641895055770874,726.0
0.6466038227081299,724.0
0.6510720252990723,735.0
0.6557540893554688,744.0
0.6607019901275635,733.0
0.6651778221130371,719.0
0.6721949577331543,724.0
0.6797130107879639,714.0
0.684473991394043,718.0
0.6890509128570557,719.0
0.696098804473877,713.0
0.7014369964599609,695.0
0.7095210552215576,728.0
0.7141027450561523,722.0
0.7215471267700195,722.0
0.7294919490814209,733.0
0.7348718643188477,737.0
0.7390379905700684,733.0
0.7455449104309082,731.0
0.7502837181091309,719.0
0.7576639652252197,753.0
0.7652738094329834,735.0
0.7726809978485107,699.0
0.7780818939208984,719.0
0.7825298309326172,720.0
0.7875468730926514,715.0
0.7921328544616699,706.0
0.7992620468139648,717.0
0.8045730590820312,721.0
0.8091769218444824,727.0
0.8171520233154297,722.0
0.8246290683746338,721.0
0.8297338485717773,721.0
0.8343110084533691,743.0
0.8422958850860596,737.0
0.8467538356781006,745.0
0.8512158393859863,758.0
0.8585748672485352,748.0
0.8632059097290039,747.0
0.8675978183746338,721.0
0.8760430812835693,743.0
0.8806619644165039,750.0
0.8878839015960693,761.0
0.893096923828125,758.0
0.8976068496704102,762.0
0.9044559001922607,756.0
0.9096379280090332,769.0
0.9139258861541748,778.0
0.9190258979797363,792.0
0.9228949546813965,784.0
0.9278080463409424,790.0
0.9317219257354736,781.0
0.93691086769104,785.0
0.9411189556121826,787.0
0.9487659931182861,786.0
0.9554760456085205,777.0
0.961245059967041,773.0
0.9654529094696045,776.0
0.972754955291748,771.0
0.9785821437835693,755.0
0.9827609062194824,771.0
0.9901878833770752,771.0
0.9970250129699707,771.0
1.0049407482147217,782.0
1.0127019882202148,786.0
1.0176301002502441,785.0
1.022428035736084,789.0
1.029757022857666,781.0
1.0376160144805908,765.0
1.0431981086730957,788.0
1.0478758811950684,796.0
1.0550930500030518,789.0
1.0610530376434326,768.0
1.0650830268859863,780.0
1.0720479488372803,769.0
1.0798428058624268,765.0
1.0873701572418213,765.0
1.0929350852966309,769.0
1.0975430011749268,765.0
1.1045660972595215,776.0
1.1097328662872314,753.0
1.1143298149108887,797.0
1.121910810470581,786.0
1.1282069683074951,777.0
1.1324408054351807,784.0
1.137397050857544,766.0
1.1417827606201172,780.0
1.1494910717010498,754.0
1.1574480533599854,770.0
1.1624877452850342,760.0
1.1668980121612549,760.0
1.17454195022583,763.0
1.1828279495239258,771.0
1.1919009685516357,769.0
1.2002339363098145,759.0
1.2052538394927979,777.0
1.2127068042755127,788.0
1.2182788848876953,797.0
1.2262308597564697,780.0
1.2307820320129395,805.0
1.2362730503082275,804.0
1.2406539916992188,802.0
1.2457408905029297,802.0
1.2502810955047607,823.0
1.2550959587097168,791.0
1.2598958015441895,784.0
1.2650158405303955,761.0
1.2696959972381592,794.0
1.2744028568267822,793.0
1.2834141254425049,785.0
1.2886381149291992,788.0
1.2942941188812256,793.0
1.2987709045410156,791.0
1.3050599098205566,795.0
1.309743881225586,799.0
1.3151450157165527,796.0
1.322403907775879,803.0
1.3288910388946533,794.0
1.3333740234375,796.0
1.3421049118041992,806.0
1.3501629829406738,806.0
1.3555028438568115,796.0
1.3630118370056152,780.0
1.3716139793395996,774.0
1.377120018005371,774.0
1.3821630477905273,782.0
1.3895928859710693,759.0
1.3963637351989746,777.0
1.4006788730621338,777.0
1.409471035003662,790.0
1.4156060218811035,795.0
1.4234678745269775,794.0
1.4303297996520996,791.0
1.4357359409332275,796.0
1.4399640560150146,797.0
1.4466240406036377,771.0
1.454284906387329,792.0
1.4596691131591797,770.0
1.4671151638031006,783.0
1.4714140892028809,764.0
1.4760279655456543,768.0
1.4803338050842285,775.0
1.4868760108947754,766.0
1.4921607971191406,768.0
1.4994308948516846,777.0
1.5073838233947754,777.0
1.512808084487915,787.0
1.5177791118621826,791.0
1.5226020812988281,793.0
1.5299389362335205,783.0
1.536045789718628,792.0
1.5401039123535156,790.0
1.5450210571289062,792.0
1.5488569736480713,803.0
1.5557599067687988,796.0
1.5615220069885254,797.0
1.5655508041381836,793.0
1.5706720352172852,787.0
1.574923038482666,784.0
1.5797231197357178,797.0
1.5842909812927246,799.0
1.5912158489227295,795.0
1.5964469909667969,795.0
1.6010620594024658,808.0
1.6090729236602783,816.0
1.6161417961120605,820.0
1.6242568492889404,822.0
1.6292519569396973,824.0
1.6337440013885498,822.0
1.6383628845214844,827.0
1.6424469947814941,820.0
1.6502408981323242,806.0
1.6545689105987549,813.0
1.658951997756958,821.0
1.6655938625335693,815.0
1.6705799102783203,805.0
1.674630880355835,817.0
1.6822328567504883,807.0
1.689404010772705,800.0
1.6949529647827148,816.0
1.6992249488830566,821.0
1.704300880432129,820.0
1.7089118957519531,817.0
1.7134628295898438,824.0
1.7206668853759766,820.0
1.725865125656128,825.0
1.7336478233337402,802.0
1.7381019592285156,824.0
1.7429139614105225,805.0
1.7503798007965088,809.0
1.7549667358398438,808.0
1.7590789794921875,810.0
1.7637889385223389,809.0
1.7687819004058838,813.0
1.7727749347686768,808.0
1.7795689105987549,806.0
1.7848048210144043,817.0
1.7929799556732178,819.0
1.7974770069122314,832.0
1.8045899868011475,832.0
1.8123409748077393,824.0
1.8175880908966064,824.0
1.8221828937530518,826.0
1.8297600746154785,840.0
1.8375110626220703,824.0
1.8426399230957031,816.0
1.8503289222717285,802.0
1.8578479290008545,816.0
1.8658487796783447,808.0
1.8709309101104736,818.0
1.8758690357208252,813.0
1.8803529739379883,801.0
1.8876428604125977,819.0
1.8926990032196045,828.0
1.8973839282989502,823.0
1.9043359756469727,837.0
1.9095580577850342,831.0
1.914031982421875,828.0
1.9211070537567139,827.0
1.926203966140747,828.0
1.9312169551849365,831.0
1.9358458518981934,796.0
1.9398579597473145,804.0
1.9447848796844482,804.0
1.9487168788909912,798.0
1.9546070098876953,798.0
1.9597439765930176,801.0
1.9653840065002441,798.0
1.9711158275604248,788.0
1.9762258529663086,795.0
1.9810898303985596,819.0
1.986609935760498,825.0
1.9910228252410889,830.0
1.9989359378814697,829.0
2.004103899002075,823.0
2.00826096534729,835.0
2.013218879699707,853.0
2.017611026763916,848.0
2.0222060680389404,831.0
2.027282953262329,823.0
2.031339168548584,832.0
2.036478042602539,833.0
2.0403940677642822,832.0
2.0452959537506104,826.0
2.0491840839385986,820.0
2.0538828372955322,822.0
2.058520793914795,838.0
2.065906047821045,849.0
2.070894956588745,847.0
2.0752100944519043,854.0
2.0824239253997803,853.0
2.0869529247283936,849.0
2.091745138168335,857.0
2.099324941635132,844.0
2.107055902481079,850.0
2.112096071243286,833.0
2.1158249378204346,835.0
2.1206459999084473,834.0
2.1255359649658203,824.0
2.129997968673706,830.0
2.1347169876098633,830.0
2.1388628482818604,820.0
2.145374059677124,830.0
2.150496006011963,818.0
2.1573050022125244,841.0
2.162294864654541,843.0
2.1666100025177,854.0
2.17389178276062,856.0
2.1790270805358887,856.0
2.1835029125213623,859.0
2.1901121139526367,859.0
2.1972198486328125,831.0
2.2042179107666016,843.0
2.209568977355957,842.0
2.217055082321167,845.0
2.2219958305358887,840.0
2.2287418842315674,838.0
2.234118938446045,843.0
2.241835832595825,841.0
2.246397018432617,843.0
2.2505788803100586,851.0
2.2570908069610596,839.0
2.261876106262207,855.0
2.2657229900360107,853.0
2.270611047744751,851.0
2.2745020389556885,836.0
2.281466007232666,858.0
2.288609743118286,841.0
2.2938570976257324,814.0
2.297589063644409,838.0
2.30444598197937,828.0
2.3095948696136475,827.0
2.3139967918395996,833.0
2.32071590423584,819.0
2.3260140419006348,819.0
2.3303728103637695,828.0
2.336977005004883,844.0
2.3417370319366455,828.0
2.3486340045928955,839.0
2.353569746017456,844.0
2.3574979305267334,848.0
2.364011764526367,846.0
2.3715898990631104,857.0
2.379201889038086,859.0
2.3843259811401367,847.0
2.3886680603027344,832.0
2.3954057693481445,831.0
2.4006049633026123,840.0
2.405061960220337,835.0
2.409590721130371,836.0
2.4166688919067383,845.0
2.421034097671509,841.0
2.4251060485839844,844.0
2.4298489093780518,840.0
2.434424877166748,866.0
2.4420230388641357,854.0
2.449591875076294,859.0
2.4573090076446533,859.0
2.462294816970825,865.0
2.466261148452759,869.0
2.473510980606079,854.0
2.4783289432525635,840.0
2.482440948486328,844.0
2.4891490936279297,846.0
2.494476795196533,841.0
2.498373031616211,836.0
2.50314998626709,835.0
2.5070509910583496,839.0
2.513495922088623,846.0
2.520732879638672,859.0
2.5255918502807617,831.0
2.5299060344696045,849.0
2.53413987159729,852.0
2.5420548915863037,856.0
2.5495169162750244,864.0
2.5543880462646484,870.0
2.558851957321167,874.0
2.567330837249756,870.0
2.5724079608917236,860.0
2.5799267292022705,853.0
2.5881848335266113,852.0
2.596426010131836,828.0
2.6048038005828857,853.0
2.61336088180542,856.0
2.621720790863037,843.0
2.6299867630004883,860.0
2.6362099647521973,875.0
2.6406688690185547,880.0
2.6461100578308105,888.0
2.651379108428955,886.0
2.656299114227295,864.0
2.6643059253692627,883.0
2.670681953430176,898.0
2.675748825073242,899.0
2.6805579662323,881.0
2.688278913497925,877.0
2.6971280574798584,874.0
2.7057149410247803,867.0
2.7138819694519043,839.0
2.719843864440918,861.0
2.724318027496338,864.0
2.732524871826172,862.0
2.7377829551696777,863.0
2.743009090423584,857.0
2.752004861831665,876.0
2.757498025894165,850.0
2.763279914855957,879.0
2.7686688899993896,876.0
2.773153066635132,874.0
2.7786009311676025,884.0
2.783574104309082,881.0
2.792342185974121,871.0
2.800705909729004,862.0
2.8094139099121094,857.0
2.8142411708831787,864.0
2.8219900131225586,863.0
2.830322027206421,862.0
2.838852882385254,855.0
2.846660852432251,848.0
2.8545868396759033,864.0
2.859553098678589,872.0
2.868394136428833,882.0
2.87308406829834,876.0
2.880793809890747,882.0
2.8869829177856445,881.0
2.8916499614715576,887.0
2.8995420932769775,887.0
2.907727003097534,880.0
2.9126880168914795,882.0
2.917313814163208,867.0
2.9257500171661377,865.0
2.9311158657073975,859.0
2.9366259574890137,863.0
2.9412717819213867,863.0
2.950269937515259,835.0
2.9578909873962402,864.0
2.965857744216919,860.0
2.970747947692871,879.0
2.975219964981079,876.0
2.9833407402038574,880.0
2.98816180229187,877.0
2.993217945098877,872.0
2.9980177879333496,890.0
3.0031659603118896,897.0
3.0073540210723877,882.0
3.012263059616089,873.0
3.0166289806365967,873.0
3.0235118865966797,864.0
3.0304300785064697,868.0
3.0379528999328613,839.0
3.0430469512939453,852.0
3.0473480224609375,858.0
3.054037094116211,859.0
3.0589828491210938,859.0
3.0634799003601074,871.0
3.068039894104004,848.0
3.075958728790283,867.0
3.0808510780334473,872.0
3.088366985321045,878.0
3.0963919162750244,883.0
3.10390305519104,875.0
3.1099019050598145,868.0
3.1147680282592773,876.0
3.1199560165405273,866.0
3.123910903930664,866.0
3.1308538913726807,876.0
3.1365268230438232,886.0
3.1406900882720947,873.0
3.145763874053955,874.0
3.1504719257354736,887.0
3.158477783203125,896.0
3.1659579277038574,899.0
3.1711058616638184,911.0
3.1752169132232666,908.0
3.182451009750366,915.0
3.1875789165496826,926.0
3.192538022994995,929.0
3.1994969844818115,918.0
3.2072179317474365,910.0
3.2124550342559814,898.0
3.2170450687408447,881.0
3.2244460582733154,890.0
3.2294399738311768,896.0
3.2340078353881836,894.0
3.240907907485962,886.0
3.245971918106079,893.0
3.250185966491699,895.0
3.2578818798065186,898.0
3.265878915786743,894.0
3.270850896835327,913.0
3.275346040725708,905.0
3.28226900100708,902.0
3.28751802444458,899.0
3.2920479774475098,911.0
3.299376964569092,912.0
3.3074450492858887,895.0
3.312950849533081,892.0
3.31815505027771,868.0
3.3231360912323,888.0
3.328402042388916,889.0
3.3328709602355957,890.0
3.340955972671509,881.0
3.3484559059143066,894.0
3.3533689975738525,900.0
3.3573789596557617,906.0
3.3621280193328857,898.0
3.3668079376220703,904.0
3.3711471557617188,902.0
3.3756649494171143,905.0
3.382827043533325,908.0
3.3904800415039062,907.0
3.3955769538879395,887.0
3.3999879360198975,880.0
3.4073119163513184,859.0
3.412184953689575,880.0
3.4166979789733887,880.0
3.421114921569824,879.0
3.425446033477783,879.0
3.432455062866211,873.0
3.437518835067749,876.0
3.441985845565796,880.0
3.449037790298462,909.0
3.4537689685821533,897.0
3.457854986190796,897.0
3.4651007652282715,894.0
3.4719009399414062,907.0
3.4794907569885254,917.0
3.4873738288879395,902.0
3.492598056793213,887.0
3.50020694732666,897.0
3.5076138973236084,893.0
3.515429973602295,860.0
3.520427942276001,888.0
3.5254368782043457,893.0
3.5302090644836426,887.0
3.5371248722076416,883.0
3.542620897293091,890.0
3.5473389625549316,894.0
3.5540900230407715,898.0
3.559231996536255,893.0
3.5634918212890625,891.0
3.5677499771118164,885.0
3.5744950771331787,911.0
3.581751823425293,881.0
3.5866780281066895,889.0
3.590989828109741,876.0
3.5957069396972656,871.0
3.6003239154815674,870.0
3.6074979305267334,880.0
3.6127469539642334,881.0
3.617250919342041,880.0
3.624619722366333,868.0
3.632335901260376,847.0
3.6373000144958496,884.0
3.6416358947753906,889.0
3.6487698554992676,884.0
3.6539337635040283,897.0
3.657782793045044,903.0
3.6652591228485107,898.0
3.6725220680236816,916.0
3.677489995956421,918.0
3.6818509101867676,901.0
3.6886579990386963,898.0
3.694171905517578,902.0
3.698211908340454,900.0
3.704730987548828,902.0
3.7098069190979004,911.0
3.714570999145508,893.0
3.721184015274048,902.0
3.7288548946380615,888.0
3.7340140342712402,911.0
3.7409517765045166,915.0
3.748046875,913.0
3.755059003829956,915.0
3.760572910308838,916.0
3.764779806137085,910.0
3.771718978881836,919.0
3.7774319648742676,912.0
3.7814719676971436,902.0
3.7885849475860596,903.0
3.7942569255828857,899.0
3.7982637882232666,895.0
3.8031718730926514,893.0
3.8071939945220947,904.0
3.812224864959717,873.0
3.816883087158203,892.0
3.8241159915924072,916.0
3.827589988708496,912.0
3.8320138454437256,911.0
3.8369429111480713,915.0
3.8408279418945312,921.0
3.84604811668396,892.0
3.8505239486694336,919.0
3.857748031616211,910.0
3.865427017211914,918.0
3.8704798221588135,909.0
3.874629020690918,898.0
3.8823769092559814,898.0
3.8874359130859375,907.0
3.8920810222625732,904.0
3.899336099624634,894.0
3.907258987426758,896.0
3.9121899604797363,911.0
3.916767120361328,921.0
3.9241108894348145,915.0
3.9294638633728027,915.0
3.934001922607422,921.0
3.9386367797851562,923.0
3.9455177783966064,919.0
3.9506359100341797,924.0
3.9551310539245605,913.0
3.9595091342926025,898.0
3.9662959575653076,895.0
3.9713029861450195,895.0
3.975713014602661,904.0
3.9826409816741943,875.0
3.9903838634490967,883.0
3.9955060482025146,885.0
3.999454975128174,892.0
4.0068299770355225,912.0
4.011819124221802,923.0
4.0157928466796875,892.0
4.022434949874878,925.0
4.027785062789917,928.0
4.0317299365997314,938.0
4.036651134490967,947.0
4.0406389236450195,948.0
4.047454118728638,940.0
4.055767774581909,942.0
4.061985015869141,930.0
4.06673002243042,933.0
4.071534872055054,937.0
4.075752019882202,923.0
4.082931041717529,933.0
4.088392972946167,923.0
4.096268892288208,911.0
4.1042749881744385,943.0
4.109752893447876,943.0
4.114402770996094,942.0
4.122102737426758,958.0
4.128051996231079,960.0
4.1324591636657715,942.0
4.138166189193726,960.0
4.146159887313843,968.0
4.154407024383545,958.0
4.159510850906372,952.0
4.164186000823975,951.0
4.172095060348511,948.0
4.180424928665161,952.0
4.188900947570801,950.0
4.194999933242798,947.0
4.19945502281189,947.0
4.207574129104614,958.0
4.212823867797852,972.0
4.217700958251953,969.0
4.222301006317139,945.0
4.229475975036621,973.0
4.237643003463745,971.0
4.243185997009277,967.0
4.251755714416504,960.0
4.256042957305908,977.0
4.2634499073028564,971.0
4.271267890930176,961.0
4.2764928340911865,953.0
4.280951976776123,927.0
4.288490056991577,928.0
4.296529054641724,953.0
4.304260969161987,929.0
4.3092570304870605,954.0
4.316905975341797,959.0
4.321400880813599,963.0
4.325795888900757,965.0
4.333995819091797,966.0
4.3385539054870605,967.0
4.343048095703125,968.0
4.351099014282227,970.0
4.355615139007568,969.0
4.360695838928223,960.0
4.364673852920532,950.0
4.372095108032227,945.0
4.37814998626709,956.0
4.38281774520874,946.0
4.390659809112549,931.0
4.3958070278167725,941.0
4.400083065032959,941.0
4.407589912414551,947.0
4.412174940109253,957.0
4.417249917984009,958.0
4.425494909286499,965.0
4.4300758838653564,960.0
4.434635877609253,948.0
4.442967891693115,978.0
4.4475648403167725,990.0
4.454914808273315,956.0
4.46062707901001,962.0
4.464640855789185,962.0
4.471953868865967,965.0
4.4796459674835205,962.0
4.4877400398254395,955.0
4.492958068847656,949.0
4.4977288246154785,948.0
4.505251884460449,947.0
4.513270139694214,925.0
4.5212719440460205,942.0
4.526887893676758,951.0
4.530853033065796,974.0
4.537835121154785,971.0
4.542816162109375,970.0
4.547559976577759,959.0
4.554913759231567,969.0
4.56261682510376,1003.0
4.567806959152222,984.0
4.575165033340454,975.0
4.583528995513916,975.0
4.588002920150757,973.0
4.592899799346924,971.0
4.601240873336792,965.0
4.6057448387146,935.0
4.613735914230347,965.0
4.622336149215698,984.0
4.631097793579102,991.0
4.637109041213989,988.0
4.642390727996826,985.0
4.650880813598633,1000.0
4.6554930210113525,998.0
4.662576913833618,1009.0
4.667825937271118,1012.0
4.675760984420776,1008.0
4.680155038833618,994.0
4.684592008590698,982.0
4.689420938491821,996.0
4.696717977523804,996.0
4.704315900802612,995.0
4.709824085235596,992.0
4.71413779258728,990.0
4.721505880355835,996.0
4.726594924926758,1001.0
4.731415748596191,1005.0
4.738762140274048,1012.0
4.743997097015381,1010.0
4.748000144958496,1017.0
4.755169153213501,1011.0
4.762769937515259,1014.0
4.770931005477905,1023.0
4.776902914047241,1007.0
4.7813451290130615,1004.0
4.788738965988159,996.0
4.794152021408081,1002.0
4.798853874206543,992.0
4.805645942687988,993.0
4.813345909118652,999.0
4.82061505317688,990.0
4.826034069061279,994.0
4.833991050720215,1010.0
4.838460922241211,1006.0
4.842977046966553,1012.0
4.850075006484985,1010.0
4.8573668003082275,1012.0
4.86208701133728,1016.0
4.867386817932129,996.0
4.871811866760254,1011.0
4.876262903213501,988.0
4.8829357624053955,978.0
4.890223979949951,988.0
4.895403861999512,996.0
4.900068998336792,985.0
4.907443046569824,984.0
4.91437292098999,986.0
4.919616937637329,979.0
4.923632860183716,988.0
4.93046498298645,1000.0
4.935969829559326,1009.0
4.9402971267700195,996.0
4.947371006011963,1014.0
4.952908754348755,1019.0
4.957337856292725,1016.0
4.964095115661621,1023.0
4.96936297416687,1019.0
4.973129034042358,1010.0
4.977993011474609,1004.0
4.98212194442749,996.0
4.9853668212890625,993.0
4.990274906158447,996.0
4.995229959487915,1003.0
4.999495029449463,997.0
5.00740385055542,989.0
5.0126848220825195,1004.0
5.017090797424316,1014.0
5.021605968475342,1011.0
5.026189804077148,1018.0
5.034016132354736,1023.0
5.040801048278809,1023.0
5.045897960662842,1023.0
5.0507941246032715,1023.0
5.055027961730957,1017.0
5.059650897979736,1010.0
5.067485094070435,1014.0
5.075563907623291,999.0
5.083631992340088,1008.0
5.088393926620483,1014.0
5.095963001251221,1004.0
5.10142183303833,993.0
5.10964298248291,1001.0
5.114269018173218,1020.0
5.119501829147339,1020.0
5.1234869956970215,1018.0
5.128736972808838,1021.0
5.132968902587891,1016.0
5.1408679485321045,1023.0
5.146005153656006,1023.0
5.150700807571411,1003.0
5.158934831619263,1012.0
5.163455963134766,992.0
5.167683839797974,1003.0
5.175559043884277,999.0
5.183868885040283,1009.0
5.1910560131073,1008.0
5.196363925933838,1003.0
5.201045036315918,1000.0
5.209134817123413,1023.0
5.213773965835571,1007.0
5.221227169036865,1023.0
5.229146957397461,1023.0
5.234723806381226,1023.0
5.239521741867065,1023.0
5.247125148773193,1023.0
5.25496506690979,1023.0
5.263023853302002,1023.0
5.271126747131348,1020.0
5.275974988937378,1023.0
5.280396938323975,1023.0
5.287735939025879,1014.0
5.295389890670776,1017.0
5.300945997238159,1017.0
5.305607080459595,1016.0
5.312825918197632,1022.0
5.31771993637085,1023.0
5.3255040645599365,1013.0
5.333621025085449,1023.0
5.340646028518677,1023.0
5.345420837402344,1023.0
5.349564075469971,1023.0
5.354337930679321,1023.0
5.359115123748779,1023.0
5.366781949996948,1023.0
5.373857021331787,1023.0
5.378931045532227,1023.0
5.384010076522827,1023.0
5.392574071884155,1023.0
5.400376796722412,1023.0
5.4088709354400635,1021.0
5.417098045349121,1020.0
5.422122001647949,1021.0
5.429551839828491,1023.0
5.437392950057983,1023.0
5.442301988601685,1023.0
5.44722580909729,1023.0
5.454660892486572,1023.0
5.462138891220093,1023.0
5.46759295463562,1023.0
5.4722418785095215,1023.0
5.476686954498291,1023.0
5.480979919433594,1023.0
5.48783802986145,1023.0
5.493364095687866,1021.0
5.49769401550293,1015.0
5.504595994949341,1011.0
5.509803056716919,1001.0
5.514096975326538,1019.0
5.520814895629883,1023.0
5.525934934616089,1023.0
5.530205011367798,1023.0
5.534505128860474,1023.0
5.542160987854004,1023.0
5.546518802642822,1023.0
5.55130410194397,1023.0
5.555815935134888,1023.0
5.562648773193359,1023.0
5.567655086517334,1023.0
5.571993827819824,1023.0
5.576748847961426,1023.0
5.580672740936279,1023.0
5.5871901512146,1023.0
5.592854738235474,1023.0
5.597369909286499,1023.0
5.604381084442139,1023.0
5.609738111495972,1023.0
5.6142189502716064,1023.0
5.62109899520874,1023.0
5.626454830169678,1023.0
5.63073992729187,1023.0
5.6377317905426025,1023.0
5.642744779586792,1023.0
5.646905899047852,1023.0
5.651185989379883,1023.0
5.6578710079193115,1023.0
5.662883996963501,1023.0
5.667304039001465,1023.0
5.674040794372559,1023.0
5.678903818130493,1023.0
5.682955026626587,1023.0
5.690019845962524,1023.0
5.696963787078857,1023.0
5.704150915145874,1023.0
5.708883047103882,1023.0
5.7133588790893555,1023.0
5.717674970626831,1023.0
5.7253499031066895,1023.0
5.732632875442505,1023.0
5.740630865097046,1023.0
5.745795965194702,1023.0
5.750267028808594,1023.0
5.754812002182007,1023.0
5.758802890777588,1023.0
5.7655041217803955,1023.0
5.770133972167969,1023.0
5.775069952011108,1023.0
5.782339811325073,1023.0
5.78729510307312,1023.0
5.791234970092773,1023.0
5.798647880554199,1023.0
5.803443908691406,1023.0
5.808485984802246,1023.0
5.813009977340698,1023.0
5.817704916000366,1023.0
5.821859836578369,1023.0
5.826786756515503,1023.0
5.831009864807129,1023.0
5.838518857955933,1023.0
5.846273899078369,1023.0
5.851145029067993,1023.0
5.855273008346558,1023.0
5.85945200920105,1023.0
5.867207050323486,1023.0
5.8744049072265625,1023.0
5.881844997406006,1023.0
5.886977910995483,1023.0
5.891231060028076,1023.0
5.898913145065308,1023.0
5.903691053390503,1023.0
5.9074578285217285,1023.0
5.912018060684204,1023.0
5.915992975234985,1023.0
5.923988103866577,1023.0
5.929193019866943,1023.0
5.9334259033203125,1023.0
5.9412360191345215,1023.0
5.9488677978515625,1023.0
5.953619956970215,1023.0
5.957565069198608,1023.0
5.962234973907471,1023.0
5.966166019439697,1023.0
5.9742279052734375,1023.0
5.979058027267456,1023.0
5.983975887298584,1023.0
5.992347955703735,1023.0
6.001513957977295,1023.0
6.006847143173218,1023.0
6.013271808624268,1023.0
6.018515110015869,1023.0
6.023941993713379,1023.0
6.030282020568848,1023.0
6.035916805267334,1023.0
6.040957927703857,1023.0
6.048972845077515,1023.0
6.055388927459717,1023.0
6.060781955718994,1023.0
6.064907073974609,1023.0
6.070240020751953,1023.0
6.075284004211426,1023.0
6.083704948425293,1023.0
6.088239908218384,1023.0
6.094159841537476,1023.0
6.0981268882751465,1023.0
6.105787992477417,1023.0
6.112114906311035,1023.0
6.116934061050415,1023.0
6.125736951828003,1023.0
6.130515098571777,1023.0
6.13844108581543,1023.0
6.144520998001099,1023.0
6.148589849472046,1023.0
6.1542370319366455,1023.0
6.1589319705963135,1023.0
6.163600921630859,1023.0
6.171285152435303,1023.0
6.1781089305877686,1023.0
6.1821699142456055,1023.0
6.187303066253662,1023.0
6.191992998123169,1023.0
6.197195768356323,1023.0
6.204249858856201,943.0
6.21314001083374,877.0
6.2209789752960205,910.0
6.2297608852386475,1015.0
6.234702825546265,1023.0
6.240200042724609,1023.0
6.245307922363281,1023.0
6.25043797492981,1023.0
6.259207010269165,1023.0
6.26357889175415,1023.0
6.270777940750122,1023.0
6.27705192565918,1023.0
6.281260967254639,1023.0
6.288502931594849,999.0
6.294887065887451,984.0
6.299309968948364,928.0
6.307787179946899,944.0
6.3159849643707275,979.0
6.324131965637207,1023.0
6.328903913497925,928.0
6.333439111709595,1023.0
6.34175181388855,1023.0
6.346726894378662,1023.0
6.351808071136475,1023.0
6.356321811676025,1023.0
6.362422943115234,1023.0
6.367784023284912,1023.0
6.372598886489868,1023.0
6.37842583656311,1023.0
6.383885860443115,1023.0
6.389602899551392,1004.0
6.3973777294158936,1023.0
6.403648853302002,979.0
6.40838098526001,951.0
6.417275905609131,823.0
6.425259113311768,879.0
6.434267997741699,983.0
6.438605785369873,942.0
6.443840742111206,958.0
6.448216915130615,1023.0
6.455910921096802,959.0
6.463818073272705,935.0
6.472625017166138,896.0
6.477715969085693,903.0
6.482946872711182,798.0
6.48828387260437,912.0
6.495856046676636,774.0
6.501251935958862,773.0
6.50951886177063,784.0
6.5171778202056885,773.0
6.522355079650879,772.0
6.52954888343811,774.0
6.538265943527222,773.0
6.54599404335022,773.0
6.554293155670166,772.0
6.559571981430054,774.0
6.568279981613159,773.0
6.572894096374512,772.0
6.578075885772705,774.0
6.582827091217041,774.0
6.588016986846924,778.0
6.593379974365234,773.0
6.598171949386597,772.0
6.6039509773254395,773.0
6.6087870597839355,773.0
6.617175817489624,773.0
6.624570846557617,772.0
6.633342027664185,774.0
6.64203405380249,776.0
6.647260904312134,773.0
6.654390811920166,774.0
6.65955114364624,774.0
6.664054870605469,773.0
6.67110800743103,774.0
6.679105758666992,775.0
6.684640169143677,774.0
6.689723968505859,773.0
6.694934129714966,775.0
6.699002981185913,774.0
6.70618200302124,776.0
6.7124598026275635,777.0
6.716978073120117,776.0
6.725838899612427,777.0
6.73444390296936,777.0
6.739346981048584,778.0
6.744950771331787,778.0
6.750258922576904,777.0
6.758626937866211,776.0
6.7634358406066895,777.0
6.768168926239014,776.0
6.772903919219971,777.0
6.778536081314087,777.0
6.78357195854187,776.0
6.788799047470093,776.0
6.795804023742676,777.0
6.801775932312012,777.0
6.806347131729126,778.0
6.811766147613525,778.0
6.816135883331299,778.0
6.8237221240997314,776.0
6.8290698528289795,777.0
6.834230184555054,778.0
6.841868877410889,778.0
6.849123954772949,776.0
6.854112148284912,776.0
6.858703851699829,777.0
6.863778829574585,776.0
6.871230125427246,777.0
6.876116991043091,776.0
6.881076097488403,776.0
6.885586977005005,776.0
6.890207052230835,779.0
6.897254943847656,778.0
6.905318975448608,780.0
6.91097617149353,778.0
6.915472030639648,779.0
6.920761823654175,780.0
6.925401926040649,779.0
6.932261943817139,779.0
6.9390270709991455,780.0
6.946480989456177,779.0
6.9540019035339355,778.0
6.959486961364746,778.0
6.96415901184082,778.0
6.970793008804321,777.0
6.976016998291016,776.0
6.980538845062256,777.0
6.985567092895508,778.0
6.9898998737335205,778.0
6.996931791305542,777.0
7.00286602973938,778.0
7.007220983505249,779.0
7.012221097946167,778.0
7.01659893989563,779.0
7.023380994796753,780.0
7.028249979019165,779.0
7.032455921173096,778.0
7.037376880645752,778.0
7.04184103012085,778.0
7.049013137817383,777.0
7.0539391040802,778.0
7.058938026428223,777.0
7.063996076583862,778.0
7.06908917427063,776.0
7.073981046676636,777.0
7.078987121582031,777.0
7.083598852157593,777.0
7.091198921203613,777.0
7.099280834197998,778.0
7.1075279712677,779.0
7.114949941635132,777.0
7.12119197845459,778.0
7.125620126724243,780.0
7.133603811264038,779.0
7.137779951095581,778.0
7.142212867736816,777.0
7.146984100341797,777.0
7.151237964630127,777.0
7.15899395942688,777.0
7.167090892791748,779.0
7.1741111278533936,778.0
7.179028034210205,778.0
7.184453964233398,778.0
7.189318895339966,779.0
7.196449041366577,779.0
7.202759027481079,780.0
7.2067389488220215,779.0
7.212610960006714,780.0
7.21776008605957,780.0
7.222272872924805,778.0
7.22969388961792,779.0
7.237618923187256,777.0
7.2430579662323,778.0
7.248573064804077,777.0
7.253247976303101,777.0
7.258500814437866,778.0
7.266223907470703,778.0
7.270902872085571,776.0
7.275404930114746,778.0
7.284240007400513,778.0
7.289173126220703,779.0
7.296939134597778,778.0
7.304300785064697,780.0
7.312727928161621,779.0
7.318099021911621,776.0
7.326501846313477,779.0
7.331045866012573,778.0
7.338263750076294,777.0
7.345854043960571,777.0
7.351041793823242,777.0
7.35881781578064,775.0
7.36683988571167,776.0
7.375754117965698,776.0
7.381129026412964,775.0
7.387583017349243,776.0
7.392794847488403,777.0
7.401617050170898,777.0
7.40662693977356,777.0
7.411584138870239,777.0
7.4173829555511475,777.0
7.425668954849243,777.0
7.430068016052246,779.0
7.434531927108765,778.0
7.442368030548096,777.0
7.44681191444397,778.0
7.451533794403076,778.0
7.455851078033447,777.0
7.460416078567505,777.0
7.464267730712891,777.0
7.470757961273193,776.0
7.475787878036499,775.0
7.480617046356201,778.0
7.485832929611206,777.0
7.490567922592163,778.0
7.4961419105529785,778.0
7.501067876815796,778.0
7.509170055389404,777.0
7.5140509605407715,777.0
7.518579006195068,778.0
7.523468971252441,778.0
7.528026819229126,776.0
7.5332629680633545,777.0
7.540415048599243,777.0
7.545592784881592,775.0
7.55020809173584,776.0
7.55945897102356,776.0
7.5640950202941895,776.0
7.569204092025757,776.0
7.573398113250732,776.0
7.579102993011475,777.0
7.58371114730835,777.0
7.591872930526733,776.0
7.600078821182251,777.0
7.604812860488892,777.0
7.610337734222412,777.0
7.614897012710571,777.0
7.620779752731323,776.0
7.624931812286377,776.0
7.632867813110352,776.0
7.640865802764893,776.0
7.646168947219849,775.0
7.651259899139404,776.0
7.655731916427612,776.0
7.663502931594849,774.0
7.669174909591675,776.0
7.673070907592773,777.0
7.678334951400757,776.0
7.682207107543945,777.0
7.6879189014434814,777.0
7.693481922149658,777.0
7.6979711055755615,776.0
7.705533981323242,778.0
7.7135560512542725,778.0
7.719243764877319,776.0
7.723536968231201,776.0
7.730865001678467,776.0
7.736649036407471,776.0
7.740758895874023,776.0
7.745640993118286,774.0
7.7495949268341064,774.0
7.757878065109253,772.0
7.76569390296936,773.0
7.770511865615845,773.0
7.7752909660339355,775.0
7.784049034118652,776.0
7.788593053817749,776.0
7.793155908584595,776.0
7.802279949188232,775.0
7.808343887329102,776.0
7.813544988632202,776.0
7.821518898010254,776.0
7.830319881439209,775.0
7.837910175323486,774.0
7.846638917922974,774.0
7.854586839675903,775.0
7.861046075820923,772.0
7.865396976470947,772.0
7.87076997756958,773.0
7.875647068023682,775.0
7.880069971084595,775.0
7.884783983230591,774.0
7.890293121337891,776.0
7.895965099334717,776.0
7.900759935379028,776.0
7.905699968338013,776.0
7.913230895996094,773.0
7.920974969863892,776.0
7.9260029792785645,773.0
7.933729887008667,773.0
7.941326856613159,772.0
7.9492878913879395,772.0
7.957259893417358,774.0
7.962809801101685,772.0
7.967043876647949,773.0
7.974372863769531,773.0
7.9827940464019775,775.0
7.990559101104736,775.0
7.995445013046265,775.0
7.999963045120239,774.0
8.00729775428772,774.0
8.012766122817993,774.0
8.017127990722656,775.0
8.02520203590393,775.0
8.033479928970337,773.0
8.041648864746094,772.0
8.04904294013977,774.0
8.056110858917236,774.0
8.062911987304688,774.0
8.067514896392822,773.0
8.076555728912354,773.0
8.081209897994995,773.0
8.088323831558228,773.0
8.097193002700806,773.0
8.102975130081177,776.0
8.10706901550293,772.0
8.111891031265259,775.0
8.11605191230774,774.0
8.124172925949097,774.0
8.129769086837769,775.0
8.13768982887268,774.0
8.14641809463501,773.0
8.154530763626099,773.0
8.159619808197021,776.0
8.168426990509033,772.0
8.17267107963562,771.0
8.179986953735352,772.0
8.185429096221924,772.0
8.189814805984497,776.0
8.194772958755493,773.0
8.198708057403564,772.0
8.203650951385498,774.0
8.208720922470093,773.0
8.21351408958435,772.0
8.221370935440063,773.0
8.229615926742554,773.0
8.239853858947754,772.0
8.245926856994629,772.0
8.251439809799194,780.0
8.258699178695679,815.0
8.268025875091553,799.0
8.27674388885498,931.0
8.282022953033447,847.0
8.287508010864258,831.0
8.292549848556519,888.0
8.298020839691162,848.0
8.303552865982056,805.0
8.308459043502808,780.0
8.316957950592041,784.0
8.32204794883728,881.0
8.330252885818481,864.0
8.338435888290405,784.0
8.346905946731567,776.0
8.352488040924072,774.0
8.357272863388062,809.0
8.363245964050293,820.0
8.368114948272705,818.0
8.373622179031372,851.0
8.379435062408447,1023.0
8.392858982086182,879.0
8.40195107460022,960.0
8.407563924789429,925.0
8.413057804107666,889.0
8.420909881591797,889.0
8.430005073547363,952.0
8.43644404411316,981.0
8.44171404838562,887.0
8.450970888137817,796.0
8.460088968276978,960.0
8.465817928314209,820.0
8.471925020217896,899.0
8.480507850646973,941.0
8.489260911941528,1023.0
8.495983839035034,952.0
8.501956939697266,932.0
8.50847601890564,939.0
8.514069080352783,951.0
8.520282983779907,1007.0
8.526216983795166,981.0
8.532100915908813,855.0
8.538930892944336,854.0
8.54501986503601,838.0
8.550253868103027,827.0
8.556213140487671,796.0
8.563060998916626,888.0
8.569846868515015,793.0
8.575269937515259,797.0
8.584490060806274,920.0
8.590314149856567,960.0
8.596966981887817,992.0
8.605615854263306,1023.0
8.6149001121521,1023.0
8.621209859848022,1023.0
8.627996921539307,1023.0
8.633349895477295,1023.0
8.639618873596191,1023.0
8.646399974822998,1023.0
8.651467084884644,1023.0
8.65718698501587,1023.0
8.663402080535889,1023.0
8.671435832977295,987.0
8.678121089935303,1023.0
8.683981895446777,1023.0
8.693240880966187,1023.0
8.698652982711792,1023.0
8.704693078994751,1023.0
8.713098049163818,1023.0
8.722033977508545,1023.0
8.73093295097351,1023.0
8.740110874176025,1023.0
8.74741792678833,1023.0
8.75641393661499,1023.0
8.763211011886597,999.0
8.769605875015259,981.0
8.775177955627441,912.0
8.784733057022095,889.0
8.791127920150757,883.0
8.800417184829712,952.0
8.809067726135254,1023.0
8.81835389137268,841.0
8.82335901260376,860.0
8.831587791442871,1013.0
8.838231801986694,1023.0
8.84676194190979,1023.0
8.853357791900635,1023.0
8.85869812965393,1023.0
8.869565963745117,1023.0
8.875807046890259,1023.0
8.885270833969116,1023.0
8.893823146820068,971.0
8.900147914886475,1023.0
8.906552791595459,1017.0
8.912930965423584,940.0
8.922301054000854,935.0
8.928478002548218,927.0
8.935204982757568,864.0
8.94268798828125,872.0
8.948172807693481,919.0
8.95626711845398,988.0
8.963979005813599,1023.0
8.971136093139648,1023.0
8.981040954589844,1023.0
8.98721194267273,1023.0
8.993664026260376,1023.0
8.9994797706604,1023.0
9.00654911994934,983.0
9.013354063034058,904.0
9.022887945175171,899.0
9.0294029712677,805.0
9.036350965499878,783.0
9.04233717918396,776.0
9.052000999450684,778.0
9.0593900680542,774.0
9.064809083938599,772.0
9.073006868362427,775.0
9.08050012588501,776.0
9.087535858154297,777.0
9.093291759490967,774.0
9.100001096725464,779.0
9.106358766555786,774.0
9.113383054733276,772.0
9.12208890914917,774.0
9.128576040267944,773.0
9.134819984436035,773.0
9.141133785247803,774.0
9.151230096817017,774.0
9.156644821166992,775.0
9.162941932678223,775.0
9.16943907737732,776.0
9.174238920211792,776.0
9.184814929962158,776.0
9.191224813461304,773.0
9.201403856277466,772.0
9.206452131271362,774.0
9.213511943817139,774.0
9.21946096420288,774.0
9.224855899810791,775.0
9.230556011199951,774.0
9.238326072692871,775.0
9.24724793434143,776.0
9.253386974334717,777.0
9.25914192199707,776.0
9.268387794494629,777.0
9.274606943130493,778.0
9.280786991119385,776.0
9.286834955215454,778.0
9.292103052139282,778.0
9.301269054412842,775.0
9.306751012802124,777.0
9.312260866165161,777.0
9.321213960647583,775.0
9.32732081413269,776.0
9.33245301246643,776.0
9.338366031646729,776.0
9.344972848892212,777.0
9.350336074829102,777.0
9.356328010559082,778.0
9.362074851989746,779.0
9.368125915527344,778.0
9.377579927444458,779.0
9.382750988006592,779.0
9.392627954483032,778.0
9.397796869277954,779.0
9.404525995254517,778.0
9.410392999649048,778.0
9.41671085357666,777.0
9.422608852386475,778.0
9.427766799926758,777.0
9.433595895767212,777.0
9.443236827850342,778.0
9.449038982391357,778.0
9.454504013061523,777.0
9.460346937179565,778.0
9.465113878250122,778.0
9.472958087921143,779.0
9.48037576675415,779.0
9.486675024032593,779.0
9.492799997329712,777.0
9.498257875442505,779.0
9.505891799926758,779.0
9.512902021408081,779.0
9.518534898757935,778.0
9.524288892745972,778.0
9.534061908721924,778.0
9.539294004440308,775.0
9.547107934951782,778.0
9.554785013198853,777.0
9.56324577331543,777.0
9.572489023208618,777.0
9.578661918640137,777.0
9.583907842636108,778.0
9.593203067779541,778.0
9.601340055465698,778.0
9.606427907943726,780.0
9.613791942596436,779.0
9.621899843215942,780.0
9.630400896072388,780.0
9.636573076248169,779.0
9.640837907791138,778.0
9.646349906921387,777.0
9.651345014572144,776.0
9.656199932098389,778.0
9.663573026657104,778.0
9.669502973556519,776.0
9.673654794692993,777.0
9.679552793502808,777.0
9.685711860656738,777.0
9.691138982772827,777.0
9.701613903045654,778.0
9.707911014556885,777.0
9.71753191947937,777.0
9.7261221408844,775.0
9.735270977020264,779.0
9.740281820297241,777.0
9.74564790725708,775.0
9.750539779663086,776.0
9.759449005126953,776.0
9.768418788909912,775.0
9.773486852645874,774.0
9.781376123428345,774.0
9.787800788879395,774.0
9.796363115310669,776.0
9.804650068283081,776.0
9.810986995697021,775.0
9.815446138381958,776.0
9.82087516784668,777.0
9.825706005096436,774.0
9.833928108215332,775.0
9.842212915420532,775.0
9.850718975067139,775.0
9.856023788452148,774.0
9.863933086395264,773.0
9.869961977005005,772.0
9.875233888626099,773.0
9.88046383857727,776.0
9.888567924499512,776.0
9.897130012512207,815.0
9.903555870056152,800.0
9.908435106277466,780.0
9.916785955429077,772.0
9.92197585105896,773.0
9.929494142532349,774.0
9.934945106506348,774.0
9.940140962600708,772.0
9.945244073867798,772.0
9.949502944946289,772.0
9.957662105560303,773.0
9.963246822357178,798.0
9.968148946762085,778.0
9.976392984390259,776.0
9.980909824371338,797.0
9.988342761993408,792.0
9.996644973754883,850.0
10.005307912826538,792.0
10.013926029205322,790.0
10.020308017730713,778.0
10.024533987045288,773.0
10.033361911773682,773.0
10.03853702545166,772.0
10.043972969055176,773.0
10.048388957977295,776.0
10.051827907562256,774.0
10.056987047195435,775.0
10.062748908996582,780.0
10.067778825759888,1023.0
10.0743989944458,927.0
10.082754850387573,992.0
10.091073751449585,1016.0
10.100231885910034,1023.0
10.105341911315918,1023.0
10.113166809082031,1023.0
10.119364976882935,1023.0
10.123997926712036,1023.0
10.12925386428833,1023.0
10.134294033050537,1023.0
10.142709016799927,1023.0
10.150733947753906,1023.0
10.156073093414307,967.0
10.163739919662476,903.0
10.170220851898193,847.0
10.17520809173584,1008.0
10.180612802505493,1023.0
10.188150882720947,1023.0
10.19694709777832,1023.0
10.203563928604126,1023.0
10.209280729293823,1023.0
10.218768835067749,1023.0
10.224217891693115,1023.0
10.230158805847168,1023.0
10.23587703704834,1023.0
10.24033498764038,1015.0
10.24581789970398,1015.0
10.250519752502441,1023.0
10.259019136428833,1023.0
10.264158964157104,986.0
10.271371841430664,962.0
10.27949595451355,919.0
10.287955045700073,1023.0
10.29650592803955,1023.0
10.30259394645691,1023.0
10.306951999664307,1023.0
10.314345121383667,1023.0
10.321023941040039,1023.0
10.326164960861206,1023.0
10.331314086914062,1023.0
10.336749792098999,1023.0
10.341835021972656,939.0
10.350718021392822,923.0
10.356328964233398,888.0
10.364346027374268,840.0
10.370264768600464,891.0
10.375261068344116,821.0
10.380483865737915,774.0
10.38799500465393,779.0
10.396374940872192,806.0
10.40490198135376,843.0
10.413035869598389,871.0
10.421749114990234,816.0
10.430026054382324,782.0
10.438539743423462,779.0
10.446640014648438,776.0
10.455027103424072,774.0
10.46302604675293,773.0
10.471190929412842,772.0
10.47959589958191,774.0
10.488163948059082,774.0
10.494518756866455,775.0
10.499027013778687,775.0
10.504395723342896,776.0
10.510174989700317,776.0
10.515541076660156,775.0
10.52194595336914,775.0
10.527546882629395,774.0
10.532497882843018,774.0
10.538392782211304,774.0
10.546278953552246,774.0
10.554605960845947,774.0
10.563227891921997,774.0
10.571315050125122,775.0
10.579632997512817,775.0
10.588222026824951,776.0
10.594048023223877,776.0
10.598554849624634,777.0
10.605989933013916,777.0
10.61228609085083,777.0
10.617403030395508,777.0
10.625998973846436,778.0
10.634745836257935,776.0
10.639632940292358,776.0
10.647297859191895,774.0
10.65359902381897,775.0
10.659006118774414,775.0
10.667726993560791,776.0
10.672900915145874,776.0
10.678143978118896,776.0
10.683559894561768,776.0
10.688918828964233,777.0
10.694633960723877,778.0
10.699330806732178,778.0
10.707669973373413,776.0
10.713382959365845,777.0
10.721114873886108,777.0
10.729573965072632,778.0
10.737982988357544,777.0
10.746035099029541,777.0
10.751596927642822,777.0
10.75670576095581,778.0
10.76450490951538,778.0
10.770472049713135,778.0
10.775314092636108,778.0
10.783530950546265,778.0
10.791926145553589,778.0
10.797343015670776,778.0
10.80517315864563,780.0
10.813381910324097,780.0
10.821577072143555,781.0
10.829746007919312,780.0
10.8382089138031,780.0
10.845953941345215,780.0
10.851298809051514,780.0
10.856457948684692,780.0
10.861951112747192,780.0
10.866785049438477,780.0
10.874332904815674,779.0
10.882728099822998,780.0
10.89195704460144,781.0
10.900049924850464,780.0
10.907922983169556,779.0
10.91370701789856,780.0
10.921274900436401,780.0
10.92952299118042,780.0
10.934868097305298,781.0
10.939740896224976,781.0
10.946984052658081,781.0
10.954786777496338,781.0
10.963074922561646,781.0
10.970953941345215,781.0
10.976225137710571,781.0
10.98448395729065,781.0
10.99309492111206,780.0
10.997956991195679,781.0
11.002984046936035,781.0
11.007539987564087,780.0
11.01282000541687,782.0
11.017472743988037,781.0
11.025590181350708,781.0
11.031023979187012,781.0
11.037117004394531,781.0
11.042393922805786,782.0
11.05049204826355,781.0
11.058477878570557,782.0
11.067711114883423,782.0
11.072808027267456,783.0
11.078556060791016,783.0
11.083785057067871,781.0
11.090972900390625,782.0
11.099254131317139,781.0
11.107743978500366,782.0
11.117354154586792,780.0
11.122485160827637,781.0
11.129776000976562,782.0
11.135843992233276,781.0
11.140337944030762,782.0
11.145643949508667,781.0
11.1541268825531,782.0
11.15959882736206,782.0
11.167995929718018,782.0
11.173373937606812,781.0
11.17900800704956,782.0
11.184046983718872,782.0
11.192265033721924,780.0
11.200989961624146,782.0
11.206130027770996,781.0
11.211765050888062,782.0
11.216701984405518,782.0
11.225259065628052,781.0
11.230369806289673,782.0
11.238399982452393,780.0
11.246855974197388,782.0
11.255255937576294,780.0
11.261334896087646,782.0
11.265781164169312,782.0
11.271347999572754,781.0
11.276441812515259,781.0
11.28190803527832,781.0
11.287619829177856,783.0
11.29308295249939,781.0
11.297706127166748,781.0
11.305248975753784,781.0
11.311117887496948,782.0
11.317672967910767,781.0
11.326298952102661,782.0
11.33592677116394,781.0
11.341134786605835,781.0
11.349366188049316,780.0
11.358764886856079,782.0
11.367501974105835,782.0
11.372915029525757,782.0
11.380859851837158,781.0
11.389082908630371,782.0
11.39634895324707,782.0
11.401735067367554,783.0
11.407318115234375,781.0
11.412729978561401,782.0
11.418262004852295,782.0
11.423712015151978,781.0
11.430720806121826,781.0
11.436945915222168,781.0
11.44213581085205,780.0
11.450851917266846,780.0
11.4599289894104,780.0
11.465435981750488,780.0
11.471524000167847,781.0
11.480210065841675,782.0
11.48705005645752,781.0
11.493052005767822,781.0
11.499068021774292,781.0
11.505734920501709,782.0
11.512156963348389,782.0
11.518059730529785,780.0
11.527123928070068,781.0
11.533702850341797,780.0
11.543252944946289,781.0
11.552281856536865,781.0
11.557572841644287,780.0
11.563636064529419,781.0
11.571783065795898,780.0
11.580595016479492,780.0
11.597530841827393,781.0
11.604459047317505,781.0
11.61384892463684,781.0
11.62185287475586,782.0
11.62935495376587,781.0
11.636904001235962,782.0
11.644179105758667,780.0
11.651283979415894,781.0
11.657418012619019,780.0
11.66447901725769,781.0
11.671685934066772,781.0
11.68074893951416,781.0
11.68843698501587,782.0
11.695360898971558,780.0
11.701877117156982,780.0
11.70850682258606,780.0
11.717952013015747,780.0
11.725178956985474,781.0
11.735371112823486,781.0
11.742383003234863,780.0
11.752097129821777,782.0
11.759111881256104,781.0
11.765639066696167,781.0
11.772406101226807,781.0
11.781300067901611,781.0
11.789253950119019,782.0
11.795967102050781,780.0
11.80476713180542,780.0
11.812491178512573,782.0
11.822008848190308,780.0
11.8298180103302,781.0
11.83864688873291,780.0
11.846231937408447,780.0
11.852943897247314,780.0
11.859137773513794,780.0
11.86889100074768,780.0
11.875561952590942,781.0
11.881852865219116,780.0
11.88861894607544,780.0
11.897418975830078,780.0
11.904345989227295,781.0
11.913702011108398,782.0
11.923158168792725,780.0
11.93061900138855,780.0
11.937705039978027,780.0
11.946894884109497,781.0
11.95644497871399,780.0
11.964362144470215,781.0
11.971755743026733,780.0
11.980743885040283,779.0
11.996968984603882,780.0
12.005713939666748,780.0
12.012506008148193,781.0
12.01798677444458,780.0
12.023993968963623,781.0
12.03031587600708,782.0
12.036454916000366,780.0
12.041835069656372,781.0
12.047414779663086,780.0
12.055585861206055,781.0
12.062175989151001,780.0
12.068203926086426,781.0
12.074084997177124,780.0
12.08050799369812,780.0
12.089003086090088,779.0
12.09594988822937,779.0
12.102254867553711,780.0
12.108979940414429,780.0
12.117945909500122,780.0
12.124207019805908,780.0
12.130270957946777,780.0
12.137547731399536,781.0
12.143464088439941,780.0
12.150707960128784,779.0
12.169301986694336,780.0
12.176872968673706,780.0
12.18424105644226,779.0
12.19024109840393,778.0
12.207827091217041,779.0
12.21501088142395,780.0
12.221454858779907,778.0
12.230541944503784,779.0
12.237385034561157,779.0
12.24664306640625,779.0
12.253270864486694,779.0
12.260491132736206,780.0
12.265974760055542,779.0
12.27272891998291,779.0
12.281441926956177,780.0
12.28852105140686,778.0
12.29769492149353,779.0
12.305593967437744,780.0
12.31225299835205,779.0
12.321462154388428,779.0
12.329291105270386,778.0
12.337594985961914,779.0
12.343366861343384,777.0
12.35188889503479,778.0
12.36035680770874,777.0
12.368665933609009,778.0
12.374485969543457,778.0
12.381470918655396,778.0
12.387597799301147,778.0
12.39313006401062,780.0
12.398344039916992,780.0
12.404412031173706,779.0
12.410057067871094,778.0
12.415910005569458,779.0
12.42512583732605,779.0
12.430485963821411,779.0
12.43678593635559,777.0
12.442486763000488,778.0
12.448112964630127,777.0
12.4544038772583,777.0
12.462371826171875,777.0
12.471250057220459,777.0
12.48062801361084,777.0
12.487648010253906,778.0
12.493789911270142,779.0
12.50185513496399,778.0
12.510336875915527,779.0
12.518665075302124,779.0
12.526443719863892,779.0
12.532228946685791,779.0
12.538049936294556,780.0
12.546247959136963,778.0
12.554669857025146,780.0
12.561526775360107,777.0
12.568726778030396,777.0
12.574557065963745,777.0
12.581109046936035,777.0
12.587327003479004,778.0
12.593553066253662,776.0
12.600324869155884,777.0
12.605973958969116,778.0
12.611885786056519,779.0
12.617355108261108,779.0
12.6231849193573,778.0
12.62956976890564,779.0
12.63801097869873,779.0
12.644766092300415,777.0
12.650568962097168,779.0
12.656309127807617,778.0
12.66426706314087,777.0
12.671376943588257,778.0
12.679094076156616,778.0
12.688640117645264,778.0
12.694983959197998,777.0
12.701568126678467,776.0
12.706685066223145,777.0
12.713588953018188,776.0
12.720080852508545,778.0
12.726134061813354,777.0
12.731389045715332,779.0
12.737246990203857,778.0
12.743173837661743,776.0
12.749157905578613,778.0
12.755271911621094,777.0
12.762102842330933,778.0
12.76843810081482,777.0
12.774396896362305,777.0
12.784120798110962,776.0
12.789687871932983,776.0
12.798043966293335,777.0
12.80489706993103,777.0
12.813325881958008,776.0
12.820679903030396,776.0
12.826279878616333,776.0
12.83242392539978,777.0
12.838414907455444,777.0
12.844406127929688,777.0
12.850040912628174,779.0
12.856858015060425,779.0
12.863158941268921,778.0
12.87173581123352,779.0
12.881032943725586,777.0
12.889076948165894,777.0
12.897498846054077,776.0
12.904608011245728,776.0
12.91309404373169,776.0
12.920132875442505,776.0
12.926614761352539,776.0
12.932168960571289,776.0
12.938552856445312,775.0
12.947668075561523,777.0
12.953899145126343,777.0
12.960374116897583,776.0
12.967605113983154,777.0
12.973587989807129,778.0
12.980106115341187,777.0
12.988878965377808,778.0
12.996469974517822,779.0
13.00260591506958,778.0
13.007903099060059,776.0
13.014482975006104,776.0
13.02206301689148,777.0
13.028098821640015,775.0
13.03402304649353,777.0
13.042993068695068,777.0
13.048259973526001,776.0
13.054262161254883,777.0
13.062766790390015,777.0
13.069694995880127,776.0
13.075130939483643,776.0
13.083615064620972,778.0
13.092286109924316,777.0
13.09817886352539,778.0
13.104249000549316,778.0
13.110647916793823,777.0
13.115749835968018,776.0
13.121685981750488,775.0
13.129210948944092,775.0
13.138158798217773,775.0
13.145138025283813,775.0
13.15099287033081,773.0
13.15658712387085,774.0
13.16458773612976,773.0
13.171446084976196,774.0
13.176597118377686,774.0
13.182328939437866,776.0
13.187879085540771,775.0
13.197232007980347,773.0
13.204102039337158,775.0
13.210785150527954,775.0
13.216856956481934,775.0
13.222265005111694,776.0
13.227804899215698,773.0
13.234593152999878,773.0
13.240170001983643,772.0
13.24691390991211,772.0
13.253919124603271,772.0
13.259668111801147,773.0
13.26550006866455,772.0
13.271504878997803,772.0
13.279948949813843,773.0
13.288765907287598,774.0
13.296510934829712,773.0
13.304025888442993,776.0
13.311625003814697,773.0
13.317534923553467,772.0
13.32342791557312,772.0
13.329654932022095,773.0
13.338165044784546,786.0
13.346385955810547,796.0
13.362940073013306,824.0
13.37248182296753,806.0
13.379633903503418,835.0
13.385993957519531,835.0
13.39173698425293,894.0
13.40699815750122,896.0
13.413023948669434,871.0
13.418977737426758,827.0
13.423882007598877,852.0
13.430313110351562,833.0
13.437476873397827,831.0
13.443320989608765,823.0
13.448570013046265,865.0
13.45357894897461,850.0
13.459003925323486,879.0
13.467584133148193,1023.0
13.484075784683228,1023.0
13.489333152770996,1023.0
13.496459722518921,1023.0
13.503283023834229,1023.0
13.508626937866211,1023.0
13.51448106765747,1023.0
13.52213191986084,1023.0
13.530992984771729,1023.0
13.538921117782593,1023.0
13.545102834701538,1023.0
13.549579858779907,1023.0
13.557130098342896,1023.0
13.562515020370483,1009.0
13.56700086593628,1006.0
13.572072982788086,1015.0
13.579575777053833,1023.0
13.587593078613281,1023.0
13.593120098114014,1023.0
13.601417064666748,1023.0
13.606359958648682,1023.0
13.613801956176758,1023.0
13.619667053222656,1023.0
13.623965978622437,1023.0
13.62915301322937,1023.0
13.633856773376465,1023.0
13.641016960144043,1023.0
13.649215936660767,1023.0
13.654714822769165,1021.0
13.659764051437378,1023.0
13.664523124694824,1019.0
13.671754121780396,1013.0
13.677612781524658,959.0
13.68214201927185,1003.0
13.687778949737549,1023.0
13.692417860031128,1023.0
13.70104694366455,1023.0
13.70932388305664,1023.0
13.71395492553711,1023.0
13.721123933792114,1023.0
13.726325035095215,1023.0
13.731339931488037,1023.0
13.736690044403076,1023.0
13.74172592163086,1023.0
13.749191045761108,1023.0
13.754657745361328,1023.0
13.75973892211914,1023.0
13.764575004577637,1009.0
13.77186894416809,991.0
13.777397155761719,1023.0
13.782320976257324,1023.0
13.787326097488403,1023.0
13.79200792312622,1023.0
13.80003309249878,1023.0
13.807584047317505,1023.0
13.815253973007202,1023.0
13.822275876998901,1023.0
13.830068111419678,1023.0
13.837977886199951,1013.0
13.845824718475342,979.0
13.851566791534424,1023.0
13.855995893478394,991.0
13.863697052001953,947.0
13.8697030544281,983.0
13.874217987060547,960.0
13.881702899932861,852.0
13.888158082962036,927.0
13.895699977874756,992.0
13.901464939117432,976.0
13.906364917755127,1023.0
13.911870956420898,1023.0
13.916695833206177,1020.0
13.924079895019531,1023.0
13.929580926895142,1023.0
13.934732913970947,1023.0
13.939728021621704,913.0
13.947221040725708,934.0
13.9531569480896,879.0
13.957754850387573,864.0
13.965525150299072,922.0
13.970999956130981,935.0
13.976263046264648,920.0
13.982508897781372,789.0
13.989219903945923,856.0
13.995874881744385,961.0
14.001219987869263,1007.0
14.006192922592163,998.0
14.013591766357422,1023.0
14.02173900604248,1003.0
14.028013944625854,1023.0
14.032937049865723,1023.0
14.040902853012085,948.0
14.046458005905151,871.0
14.051596879959106,971.0
14.059761047363281,959.0
14.064528942108154,872.0
14.07201600074768,871.0
14.078223943710327,863.0
14.083435773849487,800.0
14.092304944992065,911.0
14.097778081893921,907.0
14.105555057525635,927.0
14.11170482635498,1003.0
14.116865873336792,1022.0
14.125264883041382,1022.0
14.133737087249756,1000.0
14.138795137405396,1023.0
14.145963907241821,971.0
14.151778936386108,855.0
14.156949043273926,912.0
14.162816047668457,944.0
14.168056964874268,1019.0
14.173393964767456,785.0
14.180130958557129,832.0
14.187947750091553,805.0
14.196244955062866,790.0
14.202894926071167,847.0
14.207661867141724,1016.0
14.215933084487915,948.0
14.224036931991577,963.0
14.229525089263916,1006.0
14.23567008972168,1023.0
14.240915060043335,1023.0
14.250203847885132,1023.0
14.258840799331665,1023.0
14.267147779464722,988.0
14.275779962539673,1023.0
14.284535884857178,943.0
14.289825916290283,1023.0
14.29583191871643,958.0
14.30143690109253,954.0
14.30673599243164,913.0
14.314613103866577,800.0
14.320576906204224,912.0
14.326565980911255,907.0
14.332502841949463,943.0
14.338241815567017,982.0
14.344053030014038,1023.0
14.348887920379639,968.0
14.354664087295532,986.0
14.363131999969482,1023.0
14.372022867202759,1023.0
14.381931781768799,1023.0
14.389433860778809,889.0
14.396002769470215,903.0
14.405405044555664,915.0
14.412667036056519,1023.0
14.418323993682861,944.0
14.427574872970581,850.0
14.433831930160522,858.0
14.443331956863403,984.0
14.44934892654419,992.0
14.458801984786987,972.0
14.467942953109741,1012.0
14.47669005393982,1023.0
14.482849836349487,1023.0
14.491919994354248,1023.0
14.501494884490967,1023.0
14.506892919540405,960.0
14.51328992843628,987.0
14.52178692817688,948.0
14.52861499786377,940.0
14.5345299243927,927.0
14.543360710144043,972.0
14.549202919006348,863.0
14.555474996566772,887.0
14.56397795677185,1023.0
14.570746898651123,1023.0
14.576749801635742,1023.0
14.582722902297974,1023.0
14.592334985733032,1023.0
14.601358890533447,1023.0
14.611002922058105,1023.0
14.616886138916016,1023.0
14.622691869735718,1023.0
14.631048917770386,1023.0
14.637701988220215,1023.0
14.643972873687744,1023.0
14.649272918701172,1023.0
14.655241012573242,1023.0
14.661788940429688,1023.0
14.667534828186035,992.0
14.67672085762024,919.0
14.683202981948853,1011.0
14.692943811416626,1007.0
14.698785066604614,1023.0
14.704991102218628,1023.0
14.713390827178955,1023.0
14.720314025878906,1023.0
14.726464748382568,1023.0
14.732048034667969,1023.0
14.737926006317139,1023.0
14.74419379234314,1018.0
14.749131917953491,1003.0
14.755708932876587,939.0
14.764189004898071,936.0
14.770868062973022,1016.0
14.776947021484375,935.0
14.782365083694458,843.0
14.788454055786133,856.0
14.797038793563843,999.0
14.805941104888916,1023.0
14.812620878219604,1023.0
14.818017959594727,1023.0
14.823668003082275,1023.0
14.829774856567383,1023.0
14.83832311630249,1023.0
14.844921827316284,1023.0
14.850187063217163,1023.0
14.855903148651123,1023.0
14.863993883132935,1023.0
14.872422933578491,916.0
14.87886381149292,959.0
14.887743949890137,1023.0
14.89448094367981,1008.0
14.899483919143677,1008.0
14.909745931625366,1019.0
14.915569067001343,1020.0
14.921096086502075,1023.0
14.926874876022339,1023.0
14.931891918182373,1023.0
14.937644958496094,1023.0
14.943173885345459,1023.0
14.948817014694214,1023.0
14.954755783081055,1023.0
14.962647914886475,1023.0
14.971194982528687,1023.0
14.977268934249878,1023.0
14.9826979637146,1007.0
14.99095892906189,987.0
15.000050067901611,937.0
15.005346775054932,1007.0
15.012892961502075,1012.0
15.022159814834595,1023.0
15.030601024627686,1023.0
15.037242889404297,1023.0
15.04254698753357,1023.0
15.050859928131104,1023.0
15.059369087219238,1023.0
15.064536809921265,1023.0
15.070358037948608,1023.0
15.07567286491394,1023.0
15.08437204360962,992.0
15.089663028717041,1023.0
15.095752954483032,1023.0
15.100862979888916,973.0
15.106207132339478,1004.0
15.11358094215393,974.0
15.122039794921875,856.0
15.13030481338501,857.0
15.136332750320435,975.0
15.140874147415161,960.0
15.146672010421753,997.0
15.154230833053589,1023.0
15.16269302368164,1006.0
15.171436786651611,1007.0
15.17999005317688,1023.0
15.18831181526184,1023.0
15.197157859802246,1023.0
15.205666780471802,1023.0
15.213903903961182,968.0
15.22199296951294,880.0
15.228097915649414,910.0
15.23266887664795,971.0
15.240850925445557,931.0
15.246696949005127,854.0
15.254417896270752,940.0
15.26285982131958,1003.0
15.271221160888672,933.0
15.279329776763916,928.0
15.287723779678345,1023.0
15.296044826507568,1007.0
15.304662942886353,977.0
15.310985088348389,1023.0
15.315590858459473,943.0
15.321494102478027,822.0
15.329941034317017,856.0
15.338063955307007,832.0
15.346273183822632,807.0
15.353404998779297,831.0
15.358654975891113,931.0
15.366811037063599,779.0
15.376139163970947,779.0
15.384791851043701,1023.0
15.390340805053711,831.0
15.396293878555298,948.0
15.404139041900635,959.0
15.412481784820557,936.0
15.418513059616089,920.0
15.424198865890503,987.0
15.430043935775757,1016.0
15.437979936599731,965.0
15.44668698310852,922.0
15.453327894210815,911.0
15.4588041305542,860.0
15.467328786849976,816.0
15.475909948348999,905.0
15.4842369556427,1023.0
15.492817878723145,865.0
15.501537084579468,935.0
15.506686925888062,1012.0
15.512751817703247,1023.0
15.518932104110718,922.0
15.523904800415039,912.0
15.530066013336182,1015.0
15.537828922271729,1023.0
15.546689748764038,1023.0
15.553529977798462,1023.0
15.559072017669678,959.0
15.567531824111938,1020.0
15.575989007949829,788.0
15.584726095199585,849.0
15.590399026870728,847.0
15.59653091430664,848.0
15.602768898010254,801.0
15.608240842819214,787.0
15.617613792419434,828.0
15.623531103134155,856.0
15.629548788070679,884.0
15.63797402381897,1023.0
15.646732807159424,967.0
15.655297756195068,944.0
15.66400694847107,896.0
15.670866012573242,1023.0
15.676836013793945,1023.0
15.682301044464111,935.0
15.688452005386353,894.0
15.696599960327148,889.0
15.703274965286255,1023.0
15.708991050720215,895.0
15.71770977973938,828.0
15.726830959320068,792.0
15.733469009399414,778.0
15.744818925857544,846.0
15.751039981842041,992.0
15.757826805114746,944.0
15.767390966415405,912.0
15.776977062225342,886.0
15.783605098724365,830.0
15.78970193862915,912.0
15.797811031341553,928.0
15.804953813552856,815.0
15.811255931854248,777.0
15.81857180595398,780.0
15.82493281364441,773.0
15.832056999206543,774.0
15.83841586112976,778.0
15.845076084136963,772.0
15.852269887924194,772.0
15.858614921569824,774.0
15.865024089813232,792.0
15.871748924255371,818.0
15.88032078742981,794.0
15.887517929077148,904.0
15.893508911132812,831.0
15.899357080459595,796.0
15.908517837524414,790.0
15.914200782775879,781.0
15.922125816345215,782.0
15.929182052612305,774.0
15.935073137283325,773.0
15.94116497039795,773.0
15.950330018997192,773.0
15.95898985862732,773.0
15.968015909194946,773.0
15.97381591796875,774.0
15.979903936386108,773.0
15.988077878952026,776.0
15.996993780136108,783.0
16.005876064300537,800.0
16.01282787322998,928.0
16.021147966384888,830.0
16.028129816055298,944.0
16.034033060073853,800.0
16.043190956115723,796.0
16.048747062683105,780.0
16.0549418926239,778.0
16.063272953033447,772.0
16.070353031158447,772.0
16.07651114463806,773.0
16.082397937774658,773.0
16.088478088378906,774.0
16.096832752227783,772.0
16.10396695137024,772.0
16.110596895217896,773.0
16.116772890090942,772.0
16.12673282623291,773.0
16.13208794593811,772.0
16.138719081878662,773.0
16.147357940673828,772.0
16.154654026031494,773.0
16.16333794593811,775.0
16.172497034072876,775.0
16.17925786972046,776.0
16.184598922729492,775.0
16.190237998962402,774.0
16.196784019470215,776.0
16.205713987350464,773.0
16.214743852615356,776.0
16.221513032913208,776.0
16.23004698753357,776.0
16.238505125045776,775.0
16.245543956756592,775.0
16.250926971435547,775.0
16.256330966949463,775.0
16.2625629901886,777.0
16.267640829086304,776.0
16.27630090713501,777.0
16.28167414665222,777.0
16.287317037582397,777.0
16.29317593574524,779.0
16.29819393157959,777.0
16.30411982536316,779.0
16.30980896949768,778.0
16.315160989761353,779.0
16.323122024536133,780.0
16.329601764678955,780.0
16.334791898727417,779.0
16.343981981277466,779.0
16.349336862564087,778.0
16.357728004455566,779.0
16.366649866104126,778.0
16.375638723373413,780.0
16.3841609954834,779.0
16.393009901046753,781.0
16.40217685699463,782.0
16.407235860824585,781.0
16.413168907165527,782.0
16.418734788894653,781.0
16.42447280883789,782.0
16.432880878448486,782.0
16.441688776016235,782.0
16.446738958358765,782.0
16.45475196838379,782.0
16.46247100830078,782.0
16.469313859939575,783.0
16.474007844924927,782.0
16.479713916778564,782.0
16.485816955566406,782.0
16.49037504196167,783.0
16.496429920196533,783.0
16.501385927200317,784.0
16.510056018829346,783.0
16.515156984329224,784.0
16.520925045013428,784.0
16.526090145111084,784.0
16.53162407875061,785.0
16.539283990859985,785.0
16.54540991783142,785.0
16.550187826156616,785.0
16.55832600593567,785.0
16.566225051879883,784.0
16.571578979492188,785.0
16.57949709892273,786.0
16.5873920917511,784.0
16.595993995666504,786.0
16.601510047912598,785.0
16.606306791305542,785.0
16.611824989318848,786.0
16.61602210998535,788.0
16.62457513809204,786.0
16.630051851272583,788.0
16.63764476776123,786.0
16.643242120742798,787.0
16.647926807403564,786.0
16.6556339263916,786.0
16.662179946899414,786.0
16.667207956314087,788.0
16.676095962524414,787.0
16.681067943572998,786.0
16.6890549659729,785.0
16.69710898399353,785.0
16.70487689971924,785.0
16.714850902557373,786.0
16.721909046173096,786.0
16.730698108673096,785.0
16.737236976623535,786.0
16.742002964019775,787.0
16.747616052627563,786.0
16.755584001541138,785.0
16.76190185546875,786.0
16.766799926757812,787.0
16.775979042053223,787.0
16.781360864639282,786.0
16.789904832839966,786.0
16.79681396484375,786.0
16.802819967269897,786.0
16.80834698677063,786.0
16.814089059829712,785.0
16.822505950927734,786.0
16.83025288581848,786.0
16.836672067642212,787.0
16.842060804367065,786.0
16.851308822631836,786.0
16.856678009033203,786.0
16.862810850143433,786.0
16.868236780166626,786.0
16.87376117706299,787.0
16.880784034729004,787.0
16.887432098388672,785.0
16.892446994781494,785.0
16.901103019714355,786.0
16.906404972076416,786.0
16.911800861358643,786.0
16.917016983032227,786.0
16.92670702934265,786.0
16.93229603767395,786.0
16.939179182052612,785.0
16.94522190093994,787.0
16.950679779052734,786.0
16.958977937698364,786.0
16.967190742492676,788.0
16.976300954818726,786.0
16.984265089035034,787.0
16.992738962173462,786.0
16.998270988464355,787.0
17.006030797958374,786.0
17.014667749404907,786.0
17.021029949188232,785.0
17.026636838912964,787.0
17.034804105758667,786.0
17.040024995803833,786.0
17.04652714729309,786.0
17.054333925247192,785.0
17.061721801757812,786.0
17.067312955856323,786.0
17.075589895248413,785.0
17.084316968917847,786.0
17.08965301513672,785.0
17.096150159835815,786.0
17.101212978363037,787.0
17.107072830200195,787.0
17.113301992416382,786.0
17.12106204032898,787.0
17.127790927886963,787.0
17.13323402404785,786.0
17.1387460231781,787.0
17.14670181274414,786.0
17.153938055038452,787.0
17.16308307647705,787.0
17.172366857528687,786.0
17.179603099822998,785.0
17.185773849487305,787.0
17.191783905029297,787.0
17.20031189918518,786.0
17.206652879714966,786.0
17.21307611465454,786.0
17.21924591064453,786.0
17.22442603111267,787.0
17.232885122299194,785.0
17.242072820663452,786.0
17.250570058822632,786.0
17.259626150131226,786.0
17.26492190361023,786.0
17.2712299823761,787.0
17.288827896118164,786.0
17.296451807022095,787.0
17.303165912628174,787.0
17.30915904045105,786.0
17.318702936172485,787.0
17.324856996536255,785.0
17.334357023239136,786.0
17.343677043914795,787.0
17.350165128707886,787.0
17.359396934509277,786.0
17.368693113327026,786.0
17.37513303756714,786.0
17.38097596168518,786.0
17.389177799224854,786.0
17.39614486694336,786.0
17.404513120651245,786.0
17.413753986358643,786.0
17.423179864883423,786.0
17.430455923080444,787.0
17.436625003814697,787.0
17.442358016967773,787.0
17.45091199874878,786.0
17.459915161132812,785.0
17.466023921966553,785.0
17.475176095962524,787.0
17.484385013580322,786.0
17.490498781204224,787.0
17.496915102005005,786.0
17.505355834960938,787.0
17.512551069259644,786.0
17.521421909332275,786.0
17.530797958374023,786.0
17.538095951080322,786.0
17.54458999633789,785.0
17.55126190185547,786.0
17.55750799179077,786.0
17.563853979110718,786.0
17.572216987609863,786.0
17.579351902008057,786.0
17.58506202697754,785.0
17.591659784317017,785.0
17.601091861724854,787.0
17.607534885406494,786.0
17.61758804321289,786.0
17.62391686439514,786.0
17.63046884536743,786.0
17.639302015304565,785.0
17.646708965301514,786.0
17.655317068099976,786.0
17.66473889350891,786.0
17.67184591293335,786.0
17.680617094039917,785.0
17.68789315223694,786.0
17.69665789604187,785.0
17.703850030899048,787.0
17.70982575416565,785.0
17.7190899848938,787.0
17.727164030075073,786.0
17.73400092124939,786.0
17.740746021270752,787.0
17.747828006744385,786.0
17.75457501411438,786.0
17.763668060302734,786.0
17.771445989608765,786.0
17.778849840164185,786.0
17.785279989242554,787.0
17.792125940322876,785.0
17.801745891571045,786.0
17.808567762374878,786.0
17.81785297393799,787.0
17.82821297645569,786.0
17.83515501022339,786.0
17.84189486503601,787.0
17.852022886276245,785.0
17.859261989593506,786.0
17.86608386039734,786.0
17.876255989074707,786.0
17.88244891166687,787.0
17.889302015304565,786.0
17.89635992050171,786.0
17.905586004257202,786.0
17.913262844085693,785.0
17.922089099884033,786.0
17.929571866989136,785.0
17.93854808807373,785.0
17.946277856826782,785.0
17.95532488822937,784.0
17.9637348651886,784.0
17.9700288772583,785.0
17.97614812850952,785.0
17.985376119613647,785.0
17.991254091262817,785.0
17.99759006500244,784.0
18.004129886627197,785.0
18.01041603088379,785.0
18.016083002090454,785.0
18.025622129440308,785.0
18.034832000732422,785.0
18.04085683822632,784.0
18.04733395576477,784.0
18.055447816848755,785.0
18.06428289413452,785.0
18.071128845214844,784.0
18.07959294319153,784.0
18.086611032485962,784.0
18.09298801422119,783.0
18.10888981819153,784.0
18.11432194709778,785.0
18.12212896347046,783.0
18.12883687019348,784.0
18.133954763412476,784.0
18.14280676841736,784.0
18.15140390396118,782.0
18.157361030578613,782.0
18.163275718688965,783.0
18.16924500465393,783.0
18.17436695098877,782.0
18.18287706375122,782.0
18.191897869110107,781.0
18.197778940200806,783.0
18.205456972122192,782.0
18.211955070495605,783.0
18.21741795539856,782.0
18.225804805755615,782.0
18.234298944473267,782.0
18.2427659034729,782.0
18.247873783111572,782.0
18.255538940429688,782.0
18.261905908584595,781.0
18.26759099960327,780.0
18.27384090423584,781.0
18.27971315383911,780.0
18.287357091903687,781.0
18.292963981628418,780.0
18.30140995979309,780.0
18.30665612220764,780.0
18.312306880950928,779.0
18.318258047103882,780.0
18.323303937911987,780.0
18.328646898269653,781.0
18.333405017852783,780.0
18.340811014175415,780.0
18.346406936645508,779.0
18.35395312309265,780.0
18.36050581932068,779.0
18.36504292488098,779.0
18.37238097190857,778.0
18.379401922225952,778.0
18.384629011154175,776.0
18.3903329372406,776.0
18.397621154785156,778.0
18.403949975967407,776.0
18.409262895584106,777.0
18.41766881942749,777.0
18.42309308052063,777.0
18.43073797225952,777.0
18.436517000198364,777.0
18.441975831985474,777.0
18.450366020202637,777.0
18.458679914474487,778.0
18.46666717529297,777.0
18.472146034240723,776.0
18.479599952697754,776.0
18.488127946853638,775.0
18.49518895149231,775.0
18.50042986869812,775.0
18.505828857421875,774.0
18.514028787612915,773.0
18.521153926849365,772.0
18.52761197090149,773.0
18.531955003738403,774.0
18.5376238822937,774.0
18.54216980934143,774.0
18.55038285255432,774.0
18.557918071746826,774.0
18.566020965576172,774.0
18.57443380355835,774.0
18.58351492881775,774.0
18.593312978744507,775.0
18.599082946777344,774.0
18.60475492477417,772.0
18.60974383354187,773.0
18.61427593231201,773.0
18.621760845184326,772.0
18.627728939056396,773.0
18.631930828094482,775.0
18.638896942138672,772.0
18.646759033203125,773.0
18.654792070388794,774.0
18.662837982177734,773.0
18.670775890350342,772.0
18.67625403404236,773.0
18.680834770202637,773.0
18.68786382675171,773.0
18.6955668926239,772.0
18.700905084609985,856.0
18.715112924575806,789.0
18.72210693359375,798.0
18.72810983657837,783.0
18.732393980026245,829.0
18.7377450466156,897.0
18.748608112335205,912.0
18.754507780075073,929.0
18.76235294342041,854.0
18.767342805862427,824.0
18.775023937225342,856.0
18.782387018203735,895.0
18.78785276412964,802.0
18.79267907142639,832.0
18.797590732574463,875.0
18.805049896240234,967.0
18.812171936035156,1022.0
18.8296480178833,1023.0
18.836678981781006,1023.0
18.8416268825531,1023.0
18.846531867980957,1023.0
18.851314067840576,1023.0
18.85921001434326,1023.0
18.864058017730713,1023.0
18.871447801589966,1023.0
18.879387855529785,1003.0
18.887271881103516,932.0
18.893023014068604,984.0
18.898038148880005,923.0
18.903212785720825,812.0
18.907838106155396,802.0
18.915607929229736,800.0
18.921143770217896,798.0
18.926398038864136,887.0
18.931532859802246,907.0
18.936779022216797,812.0
18.941667795181274,922.0
18.94896912574768,815.0
18.954944133758545,775.0
18.95986795425415,780.0
18.96511197090149,778.0
18.97087001800537,772.0
18.976134061813354,774.0
18.98442792892456,776.0
18.989590883255005,773.0
18.996758937835693,776.0
19.002942085266113,776.0
19.0075740814209,776.0
19.012857913970947,778.0
19.018134117126465,776.0
19.026352882385254,775.0
19.031184911727905,776.0
19.038843870162964,775.0
19.044806003570557,776.0
19.0502028465271,775.0
19.058300018310547,776.0
19.06615900993347,776.0
19.0744469165802,776.0
19.082769870758057,777.0
19.09189200401306,777.0
19.099395990371704,777.0
19.107789993286133,778.0
19.113627910614014,777.0
19.12132215499878,777.0
19.127651929855347,777.0
19.13228988647461,778.0
19.137526035308838,778.0
19.14252996444702,778.0
19.15060591697693,776.0
19.158889055252075,775.0
19.166839838027954,775.0
19.17434787750244,776.0
19.181957006454468,776.0
19.187553882598877,775.0
19.19230604171753,777.0
19.20083785057068,777.0
19.209074020385742,776.0
19.217281818389893,778.0
19.225766897201538,777.0
19.234162092208862,778.0
19.239076852798462,778.0
19.246387004852295,780.0
19.254361867904663,779.0
19.262290954589844,779.0
19.267735958099365,778.0
19.27300000190735,776.0
19.27865505218506,776.0
19.283780813217163,777.0
19.288911819458008,777.0
19.296353101730347,776.0
19.302345037460327,776.0
19.307371139526367,777.0
19.313092947006226,778.0
19.32067108154297,778.0
19.32650089263916,778.0
19.334707975387573,777.0
19.343029975891113,778.0
19.35114097595215,779.0
19.356374740600586,778.0
19.36371898651123,779.0
19.369560956954956,778.0
19.37429690361023,777.0
19.382893800735474,777.0
19.391988039016724,777.0
19.40019989013672,778.0
19.407895803451538,779.0
19.416772842407227,778.0
19.425046920776367,778.0
19.433483839035034,778.0
19.441242933273315,780.0
19.44662594795227,780.0
19.453921794891357,778.0
19.45955991744995,779.0
19.464723110198975,779.0
19.47010588645935,778.0
19.475243091583252,779.0
19.484110832214355,779.0
19.488875150680542,779.0
19.49642300605774,779.0
19.504451990127563,778.0
19.509605884552002,779.0
19.514899969100952,780.0
19.52238178253174,779.0
19.53069281578064,780.0
19.536701917648315,780.0
19.54292392730713,780.0
19.54959797859192,780.0
19.557909965515137,781.0
19.56407594680786,779.0
19.572267055511475,781.0
19.58065390586853,780.0
19.586879014968872,780.0
19.59123206138611,780.0
19.599570989608765,781.0
19.607801914215088,781.0
19.613075017929077,781.0
19.617910146713257,781.0
19.62697982788086,780.0
19.6339910030365,781.0
19.64248299598694,780.0
19.650574922561646,782.0
19.65996813774109,783.0
19.669408082962036,782.0
19.67433786392212,782.0
19.68022894859314,781.0
19.68863296508789,782.0
19.694942951202393,783.0
19.700395107269287,783.0
19.709172010421753,783.0
19.71438694000244,782.0
19.721714973449707,782.0
19.72769808769226,781.0
19.732649087905884,782.0
19.73790192604065,781.0
19.74314785003662,780.0
19.748366832733154,781.0
19.754233837127686,782.0
19.759183883666992,782.0
19.764370918273926,782.0
19.769994020462036,782.0
19.77519392967224,782.0
19.78016185760498,782.0
19.78765082359314,781.0
19.795995950698853,782.0
19.804605960845947,782.0
19.812510013580322,783.0
19.820899963378906,783.0
19.826260089874268,781.0
19.831841945648193,783.0
19.837587118148804,783.0
19.8431179523468,783.0
19.851579904556274,782.0
19.856348037719727,782.0
19.863852739334106,781.0
19.870903968811035,783.0
19.876532077789307,784.0
19.882690906524658,782.0
19.888141870498657,782.0
19.892832040786743,783.0
19.90050482749939,783.0
19.909159898757935,782.0
19.914368867874146,784.0
19.921867847442627,782.0
19.93016290664673,782.0
19.93834090232849,782.0
19.946513891220093,783.0
19.954550743103027,782.0
19.96077299118042,781.0
19.965481996536255,781.0
19.970820903778076,781.0
19.976183891296387,781.0
19.982322931289673,781.0
19.988790035247803,781.0
19.994722843170166,783.0
20.00015091896057,782.0
20.005464792251587,780.0
20.013038873672485,782.0
20.019218921661377,781.0
20.023798942565918,782.0
20.029216051101685,782.0
20.034458875656128,782.0
20.04259204864502,781.0
20.050760984420776,780.0
20.056307077407837,781.0
20.062866926193237,780.0
20.06815195083618,780.0
20.076908826828003,780.0
20.08221197128296,779.0
20.0884370803833,780.0
20.096740007400513,780.0
20.10380983352661,781.0
20.109763860702515,781.0
20.11903190612793,780.0
20.124211072921753,781.0
20.132224082946777,781.0
20.137861013412476,780.0
20.14312195777893,780.0
20.15142798423767,780.0
20.15640878677368,779.0
20.16390109062195,779.0
20.170904874801636,780.0
20.176195859909058,780.0
20.18202304840088,778.0
20.18844699859619,780.0
20.19403100013733,780.0
20.19886589050293,781.0
20.2050838470459,780.0
20.212373971939087,782.0
20.218233823776245,781.0
20.22345995903015,782.0
20.22927188873291,781.0
20.234697103500366,783.0
20.239713191986084,781.0
20.245290994644165,780.0
20.250366926193237,781.0
20.255659818649292,781.0
20.261466026306152,780.0
20.26668405532837,779.0
20.274260997772217,780.0
20.282853841781616,779.0
20.291245937347412,779.0
20.296828031539917,780.0
20.304275035858154,780.0
20.310555934906006,781.0
20.31563091278076,780.0
20.321286916732788,780.0
20.328788995742798,779.0
20.334513902664185,779.0
20.34290385246277,780.0
20.347896814346313,779.0
20.35368514060974,777.0
20.35981798171997,777.0
20.36790680885315,776.0
20.376718997955322,775.0
20.38264513015747,775.0
20.390283823013306,774.0
20.396435976028442,772.0
20.40404486656189,773.0
20.409180879592896,774.0
20.414179801940918,775.0
20.42121410369873,776.0
20.429208993911743,796.0
20.438004970550537,801.0
20.445201873779297,855.0
20.45111584663391,965.0
20.456665992736816,1016.0
20.463057041168213,1023.0
20.469640970230103,1023.0
20.474073886871338,1023.0
20.47921109199524,1023.0
20.483855962753296,1023.0
20.491692781448364,1023.0
20.499023914337158,1017.0
20.504467964172363,998.0
20.509427070617676,981.0
20.517422914505005,994.0
20.521842002868652,971.0
20.528682947158813,938.0
20.53455901145935,942.0
20.539193868637085,926.0
20.546719074249268,894.0
20.55472493171692,906.0
20.562618017196655,887.0
20.567600965499878,860.0
20.572491884231567,848.0
20.57732892036438,836.0
20.58156704902649,826.0
20.58856201171875,813.0
20.59654688835144,817.0
20.60456895828247,806.0
20.612773895263672,803.0
20.620688915252686,813.0
20.625790119171143,797.0
20.630812883377075,803.0
20.63630199432373,796.0
20.640782833099365,817.0
20.64809513092041,821.0
20.65409803390503,816.0
20.658934116363525,818.0
20.666204929351807,816.0
20.674120903015137,803.0
20.68011498451233,794.0
20.68786597251892,788.0
20.69297695159912,782.0
20.70132303237915,768.0
20.707535982131958,777.0
20.712954998016357,766.0
20.721274852752686,765.0
20.730430126190186,787.0
20.73633909225464,789.0
20.7412428855896,793.0
20.748778104782104,790.0
20.754257917404175,801.0
20.7592830657959,786.0
20.767355918884277,795.0
20.772217988967896,807.0
20.779078006744385,790.0
20.785014867782593,772.0
20.790039777755737,777.0
20.795489072799683,780.0
20.80058789253235,769.0
20.80530595779419,789.0
20.812638998031616,779.0
20.818439960479736,775.0
20.82323384284973,785.0
20.82819890975952,808.0
20.833415985107422,807.0
20.83826208114624,801.0
20.84317398071289,824.0
20.84781289100647,822.0
20.855068922042847,815.0
20.860577821731567,816.0
20.865176916122437,827.0
20.872567892074585,790.0
20.878268003463745,820.0
20.88260006904602,827.0
20.89033794403076,824.0
20.896050930023193,786.0
20.901103973388672,820.0
20.906248092651367,827.0
20.91360378265381,836.0
20.919564962387085,857.0
20.924190044403076,872.0
20.92933988571167,878.0
20.934101104736328,881.0
20.939038038253784,893.0
20.944129943847656,895.0
20.94845199584961,903.0
20.955868005752563,910.0
20.961984872817993,914.0
20.96713399887085,911.0
20.97513699531555,900.0
20.979990005493164,892.0
20.984781980514526,908.0
20.989695072174072,914.0
20.99514102935791,902.0
21.000159978866577,908.0
21.005164861679077,919.0
21.012601852416992,928.0
21.018301010131836,925.0
21.023432970046997,929.0
21.028861045837402,922.0
21.03376793861389,934.0
21.03924298286438,941.0
21.046611070632935,946.0
21.052263021469116,949.0
21.056728839874268,911.0
21.064244031906128,931.0
21.071769952774048,914.0
21.07782483100891,926.0
21.082368850708008,927.0
21.08776617050171,931.0
21.09651494026184,920.0
21.105463981628418,914.0
21.112557888031006,933.0
21.117255926132202,948.0
21.126485109329224,954.0
21.132706880569458,961.0
21.141669034957886,940.0
21.149430751800537,959.0
21.157227754592896,967.0
21.163768768310547,975.0
21.17189884185791,959.0
21.17931890487671,951.0
21.18767285346985,971.0
21.193230867385864,958.0
21.198461055755615,977.0
21.20499587059021,970.0
21.212448120117188,971.0
21.218159914016724,977.0
21.226176738739014,981.0
21.231826066970825,989.0
21.238329887390137,993.0
21.24488878250122,1001.0
21.251094818115234,996.0
21.25577402114868,1011.0
21.263813018798828,1004.0
21.269640922546387,1012.0
21.275970935821533,1023.0
21.284963846206665,1020.0
21.28994393348694,1008.0
21.29736614227295,992.0
21.305625915527344,1001.0
21.31185293197632,1015.0
21.316487073898315,1021.0
21.323923110961914,1023.0
21.329336881637573,1023.0
21.334447860717773,1023.0
21.340049028396606,1023.0
21.34571599960327,1023.0
21.350763082504272,1023.0
21.35890793800354,1023.0
21.36721181869507,1023.0
21.372019052505493,1023.0
21.379456043243408,1023.0
21.3874568939209,1023.0
21.395851850509644,1023.0
21.40157699584961,1023.0
21.40657687187195,1023.0
21.41424584388733,1023.0
21.420078992843628,1023.0
21.426013946533203,1023.0
21.434233903884888,1023.0
21.439469814300537,1023.0
21.446006774902344,1023.0
21.454267024993896,1023.0
21.46283984184265,1023.0
21.471574068069458,1023.0
21.480044841766357,1023.0
21.489008903503418,1023.0
21.494905948638916,1023.0
21.49939489364624,1023.0
21.50776195526123,1023.0
21.51320505142212,1023.0
21.51784086227417,1023.0
21.526177167892456,1023.0
21.531340837478638,1023.0
21.53670573234558,1023.0
21.542654991149902,1023.0
21.5486958026886,1023.0
21.55492377281189,1023.0
21.56300973892212,1023.0
21.571873903274536,1023.0
21.58036494255066,1023.0
21.587203979492188,1023.0
21.592805862426758,1023.0
21.597431898117065,1023.0
21.60419201850891,1023.0
21.609527826309204,976.0
21.61758279800415,1023.0
21.62240481376648,1023.0
21.629368782043457,1023.0
21.63469910621643,1023.0
21.639879941940308,1023.0
21.646926879882812,1023.0
21.653111934661865,1023.0
21.658484935760498,1023.0
21.665031909942627,1023.0
21.672533988952637,1023.0
21.678865909576416,1023.0
21.683621883392334,988.0
21.692118167877197,861.0
21.69811201095581,843.0
21.704100847244263,912.0
21.708921909332275,800.0
21.718320846557617,943.0
21.723254919052124,838.0
21.728673934936523,832.0
21.7333767414093,859.0
21.740883111953735,911.0
21.748970985412598,963.0
21.75427794456482,863.0
21.75951385498047,862.0
21.76778793334961,975.0
21.772659063339233,944.0
21.780098915100098,830.0
21.78598189353943,780.0
21.79227304458618,782.0
21.79719305038452,774.0
21.80400586128235,774.0
21.809180974960327,776.0
21.817335844039917,773.0
21.82343292236328,773.0
21.831027030944824,773.0
21.836963891983032,784.0
21.841508865356445,774.0
21.849224090576172,773.0
21.85726809501648,772.0
21.863853931427002,772.0
21.869731903076172,779.0
21.874879121780396,779.0
21.88052201271057,772.0
21.88865900039673,773.0
21.89471697807312,774.0
21.89986801147461,776.0
21.90835690498352,780.0
21.916178941726685,773.0
21.92530107498169,774.0
21.93037486076355,773.0
21.938636779785156,773.0
21.947099924087524,772.0
21.955553770065308,773.0
21.96389412879944,772.0
21.97245979309082,772.0
21.97871494293213,774.0
21.9840669631958,772.0
21.993077039718628,773.0
21.997947931289673,773.0
22.00593900680542,775.0
22.012577056884766,776.0
22.017530918121338,776.0
22.026487827301025,777.0
22.031478881835938,776.0
22.03974485397339,776.0
22.046316862106323,776.0
22.051224946975708,777.0
22.060227870941162,776.0
22.06506085395813,775.0
22.072913885116577,776.0
22.078474044799805,774.0
22.08396077156067,773.0
22.09243893623352,775.0
22.10098886489868,775.0
22.105649948120117,775.0
22.113279104232788,777.0
22.119400024414062,776.0
22.12412190437317,776.0
22.129565954208374,778.0
22.13476800918579,777.0
22.14325475692749,777.0
22.14858889579773,777.0
22.154212951660156,778.0
22.15914297103882,779.0
22.167892932891846,777.0
22.172992706298828,778.0
22.180827856063843,778.0
22.186794996261597,777.0
22.191484928131104,777.0
22.20056986808777,776.0
22.208911895751953,777.0
22.217992067337036,778.0
22.22307801246643,778.0
22.231048107147217,779.0
22.237101793289185,778.0
22.24201774597168,779.0
22.250980854034424,779.0
22.260156869888306,780.0
22.265427112579346,780.0
22.271083116531372,780.0
22.277000904083252,779.0
22.281726121902466,779.0
22.289110898971558,778.0
22.297510862350464,777.0
22.303519010543823,777.0
22.308544874191284,776.0
22.317203998565674,779.0
22.325653076171875,778.0
22.334061861038208,778.0
22.342275857925415,777.0
22.3473060131073,779.0
22.35560894012451,779.0
22.362548112869263,779.0
22.367268800735474,778.0
22.375851154327393,779.0
22.38101315498352,780.0
22.388558864593506,780.0
22.39686107635498,781.0
22.405078172683716,780.0
22.410758018493652,780.0
22.414872884750366,780.0
22.42240595817566,779.0
22.42778992652893,779.0
22.432337999343872,780.0
22.437747955322266,780.0
22.4460289478302,780.0
22.455039024353027,780.0
22.461981058120728,780.0
22.466988801956177,781.0
22.475608825683594,781.0
22.480998992919922,781.0
22.486894845962524,781.0
22.49175786972046,782.0
22.49734902381897,782.0
22.505056142807007,780.0
22.51134705543518,781.0
22.517665147781372,780.0
22.523051023483276,780.0
22.53084707260132,781.0
22.539196014404297,782.0
22.547816038131714,781.0
22.553974866867065,781.0
22.559074878692627,782.0
22.56404685974121,783.0
22.572337865829468,782.0
22.57889485359192,784.0
22.58489203453064,782.0
22.589878797531128,782.0
22.59558415412903,782.0
22.600538969039917,782.0
22.60560178756714,782.0
22.613102912902832,782.0
22.621355772018433,781.0
22.629652976989746,782.0
22.63811206817627,782.0
22.643731117248535,782.0
22.648493766784668,781.0
22.654561758041382,782.0
22.66000008583069,782.0
22.6647469997406,783.0
22.670959949493408,782.0
22.675819873809814,783.0
22.683948755264282,783.0
22.692219972610474,782.0
22.7005558013916,783.0
22.70536780357361,782.0
22.713188886642456,782.0
22.71914505958557,783.0
22.723875999450684,782.0
22.729185104370117,782.0
22.734715938568115,783.0
22.739271879196167,783.0
22.746337890625,783.0
22.751691102981567,783.0
22.756797075271606,783.0
22.76306390762329,783.0
22.771178007125854,783.0
22.77963876724243,784.0
22.7879638671875,782.0
22.7964608669281,783.0
22.804893970489502,782.0
22.81330108642578,783.0
22.821665048599243,783.0
22.830041885375977,783.0
22.836026906967163,783.0
22.84052300453186,784.0
22.846291065216064,783.0
22.851068019866943,782.0
22.85616397857666,783.0
22.86454677581787,783.0
22.871647119522095,782.0
22.880545139312744,784.0
22.88702082633972,784.0
22.89296007156372,783.0
22.898486137390137,784.0
22.906423807144165,785.0
22.914035081863403,785.0
22.92005205154419,785.0
22.92512083053589,785.0
22.93385601043701,786.0
22.93943190574646,785.0
22.94716191291809,785.0
22.953531980514526,784.0
22.957762956619263,784.0
22.965933799743652,784.0
22.974107027053833,784.0
22.980616092681885,784.0
22.988831996917725,784.0
22.99504280090332,785.0
22.999916791915894,785.0
23.009526014328003,785.0
23.017998933792114,785.0
23.026458024978638,784.0
23.031852960586548,785.0
23.037916898727417,784.0
23.04374098777771,785.0
23.04884386062622,786.0
23.05536699295044,784.0
23.06356382369995,785.0
23.069469928741455,785.0
23.074111938476562,784.0
23.079985857009888,784.0
23.088197946548462,785.0
23.09519910812378,784.0
23.10037899017334,784.0
23.10595202445984,785.0
23.113836765289307,785.0
23.120065927505493,785.0
23.125205039978027,785.0
23.133911848068237,786.0
23.139039993286133,785.0
23.146721124649048,785.0
23.15551495552063,785.0
23.164203882217407,786.0
23.170360803604126,786.0
23.175596952438354,786.0
23.184664964675903,784.0
23.189877033233643,785.0
23.19821810722351,785.0
23.204912900924683,785.0
23.213262796401978,785.0
23.221646785736084,787.0
23.228441953659058,786.0
23.233402013778687,786.0
23.242507934570312,786.0
23.251251935958862,785.0
23.256513833999634,786.0
23.26443600654602,786.0
23.270831823349,785.0
23.276859045028687,786.0
23.281805992126465,785.0
23.287817001342773,784.0
23.29350996017456,785.0
23.29999017715454,786.0
23.30583095550537,784.0
23.315124988555908,785.0
23.32199788093567,784.0
23.329622745513916,785.0
23.33494210243225,786.0
23.34459400177002,785.0
23.350390911102295,786.0
23.359513998031616,786.0
23.365929126739502,786.0
23.37604308128357,786.0
23.381309032440186,785.0
23.388593912124634,786.0
23.39715313911438,786.0
23.406867027282715,786.0
23.413806915283203,786.0
23.42275309562683,784.0
23.428991079330444,784.0
23.434624910354614,786.0
23.444835901260376,785.0
23.450255870819092,785.0
23.46001100540161,785.0
23.46564483642578,785.0
23.472267866134644,785.0
23.479186058044434,786.0
23.485049962997437,786.0
23.49095392227173,786.0
23.497601747512817,786.0
23.50451898574829,786.0
23.513700008392334,786.0
23.5204119682312,786.0
23.526292085647583,786.0
23.532093048095703,785.0
23.537867784500122,785.0
23.5467631816864,785.0
23.555116891860962,787.0
23.561907052993774,786.0
23.567853927612305,787.0
23.575071096420288,785.0
23.581527948379517,786.0
23.587739944458008,786.0
23.608237981796265,786.0
23.614988803863525,787.0
23.621320009231567,786.0
23.630878925323486,784.0
23.6386399269104,785.0
23.645604848861694,786.0
23.65247082710266,787.0
23.65960693359375,786.0
23.666134119033813,786.0
23.673115968704224,785.0
23.67993187904358,786.0
23.687880992889404,786.0
23.696950912475586,785.0
23.70545482635498,785.0
23.714555025100708,786.0
23.722415924072266,785.0
23.73213815689087,787.0
23.740121841430664,786.0
23.746925830841064,786.0
23.753926038742065,786.0
23.759821891784668,786.0
23.77032780647278,787.0
23.777132749557495,787.0
23.78398895263672,786.0
23.79245400428772,786.0
23.799075841903687,785.0
23.806854963302612,786.0
23.813827991485596,787.0
23.82137680053711,786.0
23.828589916229248,786.0
23.838582754135132,787.0
23.847425937652588,786.0
23.855308771133423,785.0
23.861937046051025,787.0
23.869850873947144,786.0
23.8765070438385,785.0
23.882755994796753,787.0
23.893027782440186,786.0
23.900639057159424,786.0
23.907728910446167,787.0
23.91478395462036,786.0
23.92207908630371,786.0
23.929439067840576,787.0
23.938724994659424,787.0
23.94842290878296,786.0
23.956268787384033,786.0
23.963218927383423,786.0
23.972043752670288,787.0
23.981932878494263,786.0
23.990007877349854,787.0
23.997548818588257,786.0
24.004440784454346,786.0
24.01172113418579,786.0
24.018816709518433,787.0
24.025524139404297,787.0
24.0325870513916,787.0
24.042497873306274,785.0
24.049251794815063,785.0
24.056117057800293,786.0
24.06490707397461,787.0
24.07234287261963,787.0
24.08146595954895,786.0
24.089749097824097,787.0
24.096718788146973,786.0
24.106092929840088,786.0
24.114004135131836,786.0
24.120938062667847,787.0
24.127579927444458,786.0
24.134752988815308,786.0
24.142059803009033,785.0
24.148721933364868,786.0
24.156004905700684,787.0
24.165565013885498,787.0
24.173150062561035,786.0
24.18073081970215,787.0
24.188075065612793,786.0
24.194507837295532,786.0
24.201421976089478,786.0
24.20831799507141,787.0
24.217833995819092,786.0
24.228009939193726,786.0
24.234786987304688,787.0
24.241883039474487,787.0
24.24910807609558,785.0
24.25645089149475,786.0
24.26441192626953,786.0
24.273579835891724,787.0
24.282109022140503,786.0
24.2895450592041,786.0
24.297824144363403,787.0
24.30483889579773,786.0
24.315269947052002,786.0
24.323385000228882,785.0
24.33135175704956,786.0
24.338806867599487,786.0
24.346410989761353,786.0
24.356202125549316,786.0
24.3641197681427,787.0
24.37378215789795,786.0
24.382080793380737,786.0
24.39019203186035,786.0
24.39818000793457,787.0
24.40575385093689,787.0
24.413264989852905,787.0
24.423321962356567,786.0
24.43123483657837,786.0
24.43924593925476,787.0
24.447273015975952,786.0
24.45741081237793,786.0
24.465415000915527,786.0
24.47309708595276,786.0
24.48066210746765,786.0
24.49069595336914,787.0
24.498929023742676,786.0
24.5062198638916,786.0
24.513861894607544,786.0
24.52149796485901,786.0
24.529461145401,787.0
24.53912091255188,786.0
24.547220945358276,786.0
24.554699182510376,788.0
24.56283712387085,787.0
24.57010006904602,786.0
24.576884031295776,786.0
24.583538055419922,787.0
24.59041690826416,787.0
24.597426891326904,787.0
24.604732036590576,786.0
24.611994981765747,787.0
24.61899995803833,785.0
24.62621283531189,787.0
24.633872985839844,786.0
24.644150733947754,786.0
24.6524019241333,787.0
24.659271955490112,786.0
24.667113065719604,786.0
24.677661895751953,786.0
24.68556809425354,787.0
24.69311809539795,786.0
24.700544834136963,787.0
24.71043300628662,786.0
24.718131065368652,786.0
24.72537398338318,786.0
24.73280906677246,787.0
24.740297079086304,786.0
24.747564792633057,786.0
24.757134914398193,785.0
24.76467490196228,786.0
24.772645950317383,786.0
24.780012845993042,787.0
24.787357091903687,784.0
24.797794818878174,787.0
24.806458950042725,787.0
24.813057899475098,786.0
24.819790840148926,785.0
24.825632095336914,786.0
24.832262992858887,786.0
24.839221000671387,786.0
24.84654998779297,786.0
24.853277921676636,786.0
24.86051297187805,785.0
24.866742849349976,786.0
24.873607873916626,787.0
24.8802649974823,786.0
24.887425899505615,788.0
24.896353006362915,786.0
24.90647792816162,786.0
24.91325092315674,786.0
24.91910409927368,786.0
24.9253408908844,786.0
24.930903911590576,787.0
24.939563751220703,786.0
24.946661949157715,786.0
24.95244598388672,787.0
24.957520008087158,787.0
24.964071035385132,786.0
24.971112966537476,787.0
24.980540990829468,786.0
24.9879949092865,786.0
24.99748206138611,787.0
25.00530481338501,786.0
25.011770963668823,786.0
25.01819396018982,786.0
25.024868965148926,787.0
25.035043954849243,787.0
25.04084300994873,787.0
25.050947904586792,786.0
25.05701208114624,785.0
25.064545154571533,787.0
25.07087016105652,787.0
25.080445051193237,786.0
25.08696675300598,786.0
25.093572854995728,787.0
25.100323915481567,787.0
25.10695791244507,786.0
25.113728761672974,786.0
25.121521949768066,786.0
25.127707958221436,786.0
25.134511947631836,787.0
25.140445947647095,787.0
25.147641897201538,786.0
25.155359983444214,786.0
25.16182518005371,786.0
25.168565034866333,786.0
25.175673961639404,788.0
25.181644916534424,787.0
25.18933892250061,785.0
25.19703197479248,786.0
25.203484058380127,787.0
25.20911192893982,787.0
25.215168714523315,786.0
25.22207808494568,787.0
25.228677988052368,786.0
25.23470401763916,787.0
25.24038314819336,787.0
25.24646782875061,785.0
25.255019903182983,786.0
25.26386594772339,786.0
25.270490884780884,786.0
25.27621293067932,787.0
25.282059907913208,786.0
25.28894591331482,787.0
25.295759916305542,787.0
25.301641941070557,786.0
25.311920881271362,786.0
25.31773591041565,787.0
25.327018976211548,787.0
25.333323001861572,786.0
25.343138933181763,786.0
25.352664947509766,786.0
25.35851287841797,785.0
25.368117094039917,786.0
25.373889923095703,787.0
25.380223035812378,786.0
25.38835906982422,787.0
25.397444009780884,787.0
25.404072046279907,786.0
25.409435033798218,786.0
25.41886591911316,787.0
25.425436973571777,786.0
25.434524059295654,786.0
25.4406099319458,788.0
25.447075843811035,785.0
25.455139875411987,787.0
25.46422576904297,786.0
25.472880840301514,786.0
25.47986888885498,786.0
25.488574028015137,786.0
25.495841026306152,786.0
25.501579761505127,786.0
25.510940074920654,786.0
25.526488780975342,788.0
25.53253483772278,786.0
25.53957486152649,786.0
25.546024084091187,787.0
25.554550170898438,788.0
25.563973903656006,786.0
25.571200132369995,786.0
25.580107927322388,786.0
25.587525844573975,786.0
25.593636989593506,785.0
25.600250959396362,787.0
25.606372833251953,786.0
25.613553047180176,786.0
25.62018585205078,785.0
25.62630796432495,785.0
25.6365168094635,787.0
25.642641067504883,786.0
25.649163722991943,786.0
25.655837059020996,786.0
25.66469407081604,787.0
25.671955108642578,786.0
25.68118405342102,787.0
25.688323974609375,787.0
25.69740605354309,786.0
25.70460605621338,786.0
25.711182832717896,786.0
25.717631101608276,786.0
25.727065801620483,787.0
25.733410835266113,787.0
25.739606857299805,787.0
25.746532917022705,786.0
25.75545597076416,787.0
25.762763023376465,787.0
25.771785974502563,787.0
25.77859592437744,786.0
25.78472399711609,786.0
25.794583797454834,787.0
25.801292896270752,786.0
25.80787682533264,787.0
25.8182590007782,786.0
25.82515597343445,786.0
25.83603596687317,785.0
25.84374690055847,786.0
25.851165056228638,786.0
25.858590126037598,786.0
25.86571192741394,787.0
25.87379479408264,786.0
25.881250858306885,786.0
25.888016939163208,786.0
25.89445996284485,786.0
25.901159048080444,786.0
25.9124858379364,786.0
25.918994903564453,786.0
25.926024913787842,786.0
25.932435035705566,786.0
25.943310976028442,786.0
25.95059585571289,786.0
25.961519956588745,785.0
25.967772960662842,786.0
25.97438907623291,786.0
25.984939098358154,786.0
25.99514389038086,786.0
26.002273082733154,786.0
26.009948015213013,786.0
26.018262147903442,787.0
26.025259017944336,787.0
26.035810947418213,785.0
26.04184603691101,786.0
26.04874300956726,787.0
26.055734157562256,787.0
26.063379049301147,787.0
26.072621822357178,786.0
26.08105206489563,786.0
26.088438749313354,786.0
26.095402002334595,786.0
26.102394819259644,787.0
26.11042094230652,785.0
26.116793870925903,786.0
26.12774109840393,787.0
26.134716987609863,786.0
26.141677856445312,786.0
26.14777398109436,787.0
26.155327081680298,787.0
26.164276123046875,787.0
26.17183804512024,787.0
26.177788019180298,786.0
26.185441732406616,787.0
26.192601919174194,787.0
26.202721118927002,785.0
26.20930790901184,786.0
26.215821981430054,786.0
26.226379871368408,786.0
26.23340892791748,787.0
26.2434561252594,786.0
26.249506950378418,786.0
26.256278038024902,787.0
26.26282501220703,787.0
26.27189302444458,786.0
26.279237985610962,787.0
26.28841781616211,786.0
26.295116901397705,787.0
26.301362991333008,787.0
26.311437845230103,786.0
26.31751298904419,786.0
26.32413077354431,786.0
26.33175301551819,787.0
26.339340925216675,787.0
26.346781015396118,786.0
26.353471040725708,786.0
26.360716819763184,786.0
26.368488073349,786.0
26.37575101852417,786.0
26.383332014083862,786.0
26.390571117401123,785.0
26.39782691001892,787.0
26.405597925186157,786.0
26.41273307800293,786.0
26.423280000686646,786.0
26.430681943893433,786.0
26.438358783721924,786.0
26.444791793823242,786.0
26.452632904052734,787.0
26.458899974822998,786.0
26.466091871261597,786.0
26.47627305984497,786.0
26.48612689971924,786.0
26.49334692955017,787.0
26.5003559589386,786.0
26.51086401939392,788.0
26.518797874450684,786.0
26.52629780769348,787.0
26.533332109451294,786.0
26.540107011795044,787.0
26.546916007995605,786.0
26.556428909301758,787.0
26.563456058502197,787.0
26.572241067886353,787.0
26.57925295829773,787.0
26.588400840759277,786.0
26.59785294532776,787.0
26.60495901107788,787.0
26.611246824264526,786.0
26.61671495437622,786.0
26.62616515159607,787.0
26.632850885391235,786.0
26.643124103546143,786.0
26.649409770965576,787.0
26.659114122390747,786.0
26.66852378845215,786.0
26.67500877380371,786.0
26.68453097343445,787.0
26.690619945526123,787.0
26.697383880615234,787.0
26.7062931060791,787.0
26.713400840759277,787.0
26.71972393989563,785.0
26.725956916809082,787.0
26.7319118976593,786.0
26.739314079284668,786.0
26.746259927749634,786.0
26.75503897666931,786.0
26.764716863632202,785.0
26.772918939590454,787.0
26.780858993530273,786.0
26.788135051727295,786.0
26.79491114616394,786.0
26.801160097122192,786.0
26.807532787322998,787.0
26.81696891784668,785.0
26.826884984970093,787.0
26.833238124847412,786.0
26.843106985092163,787.0
