time,emg
0.008015155792236328,293.0
0.021213293075561523,302.0
0.03504014015197754,303.0
0.04200029373168945,300.0
0.048368215560913086,307.0
0.05410313606262207,312.0
0.05843830108642578,298.0
0.06358504295349121,287.0
0.06790518760681152,254.0
0.07242703437805176,262.0
0.07665109634399414,281.0
0.0838620662689209,287.0
0.09129810333251953,284.0
0.09861922264099121,285.0
0.10466933250427246,294.0
0.10966825485229492,284.0
0.1179051399230957,322.0
0.12558221817016602,313.0
0.13399219512939453,272.0
0.1420302391052246,308.0
0.1471412181854248,323.0
0.15117311477661133,326.0
0.15858936309814453,327.0
0.16386938095092773,300.0
0.16877126693725586,313.0
0.17633509635925293,302.0
0.18356609344482422,312.0
0.18891429901123047,309.0
0.19402432441711426,314.0
0.20231413841247559,300.0
0.20760822296142578,302.0
0.21319127082824707,312.0
0.21806907653808594,316.0
0.22345805168151855,319.0
0.22910118103027344,321.0
0.23388314247131348,324.0
0.2422032356262207,319.0
0.2505011558532715,318.0
0.25905323028564453,330.0
0.2672922611236572,302.0
0.2757723331451416,304.0
0.28461623191833496,307.0
0.29314613342285156,278.0
0.301224946975708,316.0
0.30877113342285156,312.0
0.3167233467102051,303.0
0.3222322463989258,314.0
0.32995104789733887,311.0
0.3354671001434326,298.0
0.34336113929748535,325.0
0.3519003391265869,295.0
0.3570852279663086,327.0
0.3643381595611572,319.0
0.37250208854675293,331.0
0.3786201477050781,323.0
0.38342809677124023,320.0
0.38868117332458496,316.0
0.39342427253723145,314.0
0.40181827545166016,294.0
0.40980029106140137,303.0
0.4180600643157959,306.0
0.4235069751739502,305.0
0.4290633201599121,294.0
0.4333932399749756,277.0
0.4388580322265625,303.0
0.44344019889831543,300.0
0.4519350528717041,316.0
0.46004509925842285,312.0
0.4654991626739502,285.0
0.47249317169189453,287.0
0.480086088180542,311.0
0.48540425300598145,309.0
0.49236607551574707,300.0
0.49738216400146484,301.0
0.5017101764678955,304.0
0.5089111328125,304.0
0.5165712833404541,293.0
0.5217311382293701,291.0
0.5255241394042969,299.0
0.5334742069244385,303.0
0.5385911464691162,292.0
0.5427772998809814,292.0
0.5496892929077148,305.0
0.5545411109924316,310.0
0.5588080883026123,307.0
0.5660390853881836,305.0
0.5727400779724121,321.0
0.5807681083679199,339.0
0.5888841152191162,306.0
0.5970141887664795,284.0
0.605139970779419,303.0
0.6106650829315186,299.0
0.6157901287078857,310.0
0.6211972236633301,294.0
0.6253871917724609,300.0
0.630486011505127,310.0
0.6351401805877686,304.0
0.6423721313476562,307.0
0.6501262187957764,311.0
0.6575872898101807,312.0
0.6634681224822998,323.0
0.6682322025299072,326.0
0.675469160079956,320.0
0.6813061237335205,323.0
0.688927173614502,334.0
0.6971640586853027,341.0
0.7053651809692383,327.0
0.7138462066650391,300.0
0.7194533348083496,289.0
0.7238919734954834,273.0
0.7288041114807129,290.0
0.7332103252410889,318.0
0.7402081489562988,303.0
0.748049259185791,290.0
0.7559442520141602,299.0
0.763836145401001,311.0
0.7689261436462402,314.0
0.7763152122497559,317.0
0.7837800979614258,309.0
0.7920141220092773,295.0
0.797652006149292,322.0
0.8023769855499268,333.0
0.8107361793518066,327.0
0.8186030387878418,330.0
0.8236103057861328,302.0
0.8313682079315186,312.0
0.8399732112884521,315.0
0.8454692363739014,280.0
0.8494341373443604,312.0
0.8570661544799805,309.0
0.8645980358123779,299.0
0.8727660179138184,310.0
0.8807101249694824,312.0
0.8889641761779785,317.0
0.897130012512207,294.0
0.9024331569671631,325.0
0.9102721214294434,329.0
0.9151411056518555,319.0
0.9225132465362549,333.0
0.930217981338501,310.0
0.9350302219390869,315.0
0.9420139789581299,301.0
0.9471611976623535,303.0
0.9520890712738037,314.0
0.9600250720977783,310.0
0.9672131538391113,308.0
0.9720613956451416,299.0
0.9768922328948975,309.0
0.9836223125457764,321.0
0.9888861179351807,334.0
0.9938671588897705,327.0
0.998291015625,328.0
1.005021333694458,329.0
1.010254144668579,329.0
1.0179181098937988,328.0
1.025644063949585,325.0
1.0332751274108887,314.0
1.0384409427642822,308.0
1.0430161952972412,305.0
1.050180196762085,328.0
1.055058240890503,326.0
1.06001615524292,289.0
1.067094087600708,286.0
1.0748443603515625,304.0
1.0801301002502441,314.0
1.0855491161346436,333.0
1.0901613235473633,329.0
1.0952081680297852,330.0
1.0995862483978271,337.0
1.1062510013580322,323.0
1.1144671440124512,331.0
1.1225841045379639,349.0
1.130317211151123,343.0
1.1357672214508057,317.0
1.143522024154663,319.0
1.148069143295288,320.0
1.1551973819732666,325.0
1.1607470512390137,289.0
1.165208101272583,318.0
1.1722512245178223,318.0
1.1774530410766602,317.0
1.1821010112762451,307.0
1.1891252994537354,329.0
1.1970202922821045,335.0
1.2020821571350098,304.0
1.2100763320922852,332.0
1.2174122333526611,339.0
1.225311040878296,343.0
1.2306761741638184,349.0
1.2358322143554688,337.0
1.2402722835540771,307.0
1.2449681758880615,328.0
1.2494032382965088,321.0
1.2564921379089355,327.0
1.2642931938171387,335.0
1.272022008895874,329.0
1.2772161960601807,306.0
1.2819452285766602,316.0
1.2890923023223877,322.0
1.2939860820770264,340.0
1.301788330078125,341.0
1.3065271377563477,341.0
1.3137900829315186,343.0
1.3191161155700684,318.0
1.3266191482543945,343.0
1.3310821056365967,336.0
1.3356990814208984,333.0
1.3403432369232178,330.0
1.3453631401062012,319.0
1.3496651649475098,320.0
1.3567211627960205,318.0
1.3627610206604004,315.0
1.3669052124023438,320.0
1.3716752529144287,308.0
1.3756470680236816,326.0
1.3832042217254639,319.0
1.388350009918213,326.0
1.3929791450500488,326.0
1.3978323936462402,333.0
1.4021093845367432,335.0
1.4097232818603516,325.0
1.4172379970550537,331.0
1.424720287322998,329.0
1.4297521114349365,306.0
1.4339320659637451,322.0
1.439195156097412,320.0
1.443636178970337,315.0
1.451625108718872,315.0
1.4589412212371826,313.0
1.4664740562438965,302.0
1.47343111038208,324.0
1.4810171127319336,347.0
1.4885780811309814,321.0
1.4939162731170654,316.0
1.5017321109771729,330.0
1.5063552856445312,352.0
1.510437250137329,333.0
1.5184502601623535,346.0
1.5262792110443115,361.0
1.5336723327636719,352.0
1.538872241973877,341.0
1.54313325881958,333.0
1.5500831604003906,335.0
1.5546891689300537,349.0
1.5587542057037354,315.0
1.5631332397460938,331.0
1.566946029663086,328.0
1.5722191333770752,342.0
1.5765550136566162,327.0
1.5814151763916016,347.0
1.5857820510864258,327.0
1.5933821201324463,343.0
1.600762128829956,343.0
1.6086411476135254,333.0
1.6137051582336426,353.0
1.6182153224945068,355.0
1.6257381439208984,346.0
1.6331310272216797,337.0
1.6383450031280518,335.0
1.642815113067627,335.0
1.6496713161468506,302.0
1.6566510200500488,326.0
1.6623492240905762,333.0
1.6666522026062012,325.0
1.673279047012329,330.0
1.679192066192627,337.0
1.6838831901550293,340.0
1.6919832229614258,346.0
1.6974232196807861,344.0
1.7020480632781982,330.0
1.710313081741333,337.0
1.7174031734466553,362.0
1.7253661155700684,355.0
1.7305762767791748,343.0
1.7352283000946045,340.0
1.7429311275482178,313.0
1.747793197631836,343.0
1.7550883293151855,344.0
1.760688304901123,342.0
1.7653632164001465,337.0
1.772334098815918,318.0
1.7803912162780762,340.0
1.7859811782836914,354.0
1.7911880016326904,355.0
1.7964832782745361,348.0
1.8012301921844482,352.0
1.808962106704712,343.0
1.8168811798095703,346.0
1.822153091430664,357.0
1.8267860412597656,326.0
1.8347642421722412,340.0
1.8394031524658203,325.0
1.8442881107330322,342.0
1.8517460823059082,335.0
1.8588531017303467,330.0
1.8663742542266846,334.0
1.8716301918029785,335.0
1.876049280166626,329.0
1.881026029586792,336.0
1.8851401805877686,335.0
1.892409086227417,336.0
1.8999691009521484,337.0
1.905116319656372,337.0
1.9089720249176025,347.0
1.9158751964569092,338.0
1.9226632118225098,335.0
1.9301550388336182,331.0
1.9353911876678467,326.0
1.9423401355743408,300.0
1.9472801685333252,321.0
1.951735019683838,343.0
1.9587452411651611,352.0
1.9637792110443115,315.0
1.9683821201324463,308.0
1.972733974456787,342.0
1.9772663116455078,358.0
1.984971046447754,349.0
1.9895071983337402,361.0
1.9935753345489502,358.0
2.00058913230896,364.0
2.008270263671875,363.0
2.0134170055389404,369.0
2.017895221710205,359.0
2.0225281715393066,350.0
2.026689052581787,348.0
2.0309340953826904,344.0
2.034804105758667,341.0
2.041957139968872,341.0
2.0469162464141846,336.0
2.0510740280151367,334.0
2.0582783222198486,340.0
2.065284252166748,346.0
2.0731263160705566,355.0
2.0788352489471436,369.0
2.0828781127929688,358.0
2.0903422832489014,367.0
2.096677303314209,369.0
2.1013760566711426,367.0
2.109589099884033,371.0
2.1167643070220947,352.0
2.121938943862915,356.0
2.126307249069214,340.0
2.1340901851654053,342.0
2.141641139984131,343.0
2.148900270462036,344.0
2.1542720794677734,347.0
2.158508062362671,336.0
2.163889169692993,336.0
2.1683530807495117,349.0
2.172945261001587,352.0
2.1770880222320557,357.0
2.1849400997161865,366.0
2.1896111965179443,368.0
2.1935501098632812,359.0
2.201892137527466,370.0
2.206839084625244,373.0
2.2120161056518555,333.0
2.2159502506256104,356.0
2.223137140274048,352.0
2.229098081588745,354.0
2.2330119609832764,351.0
2.239927053451538,349.0
2.245572090148926,350.0
2.2496511936187744,348.0
2.2542452812194824,348.0
2.25825834274292,349.0
2.263406276702881,359.0
2.2678720951080322,360.0
2.2747583389282227,362.0
2.2797420024871826,362.0
2.2837331295013428,363.0
2.288640022277832,376.0
2.2932910919189453,376.0
2.297764301300049,350.0
2.302546262741089,352.0
2.3099870681762695,357.0
2.314394235610962,352.0
2.3185532093048096,347.0
2.322697162628174,345.0
2.326519250869751,351.0
2.333895206451416,348.0
2.3414220809936523,349.0
2.3463761806488037,358.0
2.350299119949341,366.0
2.355609178543091,373.0
2.3601930141448975,374.0
2.3681752681732178,359.0
2.376460075378418,340.0
2.3808281421661377,360.0
2.3851640224456787,366.0
2.392343044281006,354.0
2.3977270126342773,347.0
2.402132034301758,352.0
2.4102721214294434,335.0
2.4151721000671387,346.0
2.4225821495056152,361.0
2.429962158203125,342.0
2.4345362186431885,331.0
2.442120313644409,342.0
2.4472100734710693,357.0
2.451963186264038,368.0
2.4565000534057617,367.0
2.4641292095184326,369.0
2.4688713550567627,347.0
2.4736971855163574,374.0
2.4779720306396484,378.0
2.482459306716919,364.0
2.487243175506592,361.0
2.4913489818573,355.0
2.496870279312134,352.0
2.5007359981536865,348.0
2.508578062057495,345.0
2.515895128250122,350.0
2.5214710235595703,319.0
2.525712251663208,353.0
2.5334181785583496,355.0
2.538691282272339,348.0
2.5428221225738525,359.0
2.5504751205444336,360.0
2.5577921867370605,360.0
2.565124273300171,370.0
2.572874069213867,379.0
2.5800671577453613,372.0
2.5847671031951904,357.0
2.5923662185668945,347.0
2.597694158554077,364.0
2.602149248123169,367.0
2.6100993156433105,359.0
2.6178371906280518,362.0
2.6251420974731445,331.0
2.6302740573883057,358.0
2.634467124938965,368.0
2.6422221660614014,377.0
2.650172233581543,371.0
2.6572422981262207,376.0
2.662912130355835,359.0
2.6667520999908447,374.0
2.6715340614318848,372.0
2.6755311489105225,370.0
2.683364152908325,341.0
2.6886563301086426,357.0
2.6935880184173584,344.0
2.6984431743621826,326.0
2.706050157546997,332.0
2.712317943572998,347.0
2.7168571949005127,347.0
2.721754312515259,337.0
2.7265453338623047,364.0
2.7312283515930176,362.0
2.7361831665039062,359.0
2.741467237472534,371.0
2.748857259750366,388.0
2.756972074508667,382.0
2.765111207962036,372.0
2.773266315460205,383.0
2.7816193103790283,387.0
2.7876460552215576,377.0
2.7922990322113037,368.0
2.799987316131592,361.0
2.804835081100464,365.0
2.808720111846924,363.0
2.8143250942230225,365.0
2.8191070556640625,363.0
2.8271360397338867,330.0
2.8353331089019775,370.0
2.842907190322876,371.0
2.851421356201172,379.0
2.8597843647003174,377.0
2.8670551776885986,344.0
2.8723881244659424,365.0
2.8767411708831787,368.0
2.885045051574707,368.0
2.890150308609009,361.0
2.8955793380737305,345.0
2.9001221656799316,373.0
2.9053142070770264,355.0
2.9100942611694336,328.0
2.918781280517578,337.0
2.9233641624450684,323.0
2.9303700923919678,351.0
2.9361181259155273,332.0
2.9409379959106445,353.0
2.946704149246216,353.0
2.9517881870269775,348.0
2.956740140914917,373.0
2.9619760513305664,386.0
2.966930389404297,364.0
2.972191095352173,376.0
2.9774420261383057,392.0
2.9822442531585693,369.0
2.989694118499756,367.0
2.9971582889556885,338.0
3.00235915184021,365.0
3.0069241523742676,365.0
3.0136752128601074,357.0
3.0193662643432617,359.0
3.0237650871276855,335.0
3.030635118484497,353.0
3.038600206375122,364.0
3.0443382263183594,375.0
3.0496251583099365,363.0
3.0549051761627197,366.0
3.0598552227020264,366.0
3.0671443939208984,367.0
3.072740077972412,368.0
3.077498197555542,369.0
3.0852651596069336,355.0
3.0930612087249756,348.0
3.1012003421783447,351.0
3.109652042388916,348.0
3.118173360824585,344.0
3.123002290725708,344.0
3.1301631927490234,343.0
3.1358110904693604,314.0
3.140820026397705,341.0
3.1481411457061768,350.0
3.155738115310669,359.0
3.1632890701293945,362.0
3.168553113937378,361.0
3.176114320755005,350.0
3.183662176132202,334.0
3.1888442039489746,369.0
3.1934621334075928,354.0
3.201298952102661,341.0
3.209099054336548,321.0
3.2168142795562744,348.0
3.221891164779663,357.0
3.2266182899475098,336.0
3.23394513130188,346.0
3.238973379135132,327.0
3.243988037109375,347.0
3.252134323120117,355.0
3.256535053253174,351.0
3.263451337814331,356.0
3.268853187561035,368.0
3.276437997817993,372.0
3.2837741374969482,343.0
3.291436195373535,348.0
3.2967631816864014,373.0
3.3015942573547363,369.0
3.306617259979248,351.0
3.313267230987549,347.0
3.318434238433838,346.0
3.3230032920837402,339.0
3.330281972885132,314.0
3.3361401557922363,333.0
3.340989351272583,344.0
3.3486289978027344,339.0
3.3562722206115723,338.0
3.3642702102661133,349.0
3.372189998626709,348.0
3.3778302669525146,346.0
3.382364273071289,353.0
3.390040159225464,342.0
3.3958280086517334,334.0
3.3998563289642334,341.0
3.4051263332366943,362.0
3.4097683429718018,343.0
3.4181740283966064,337.0
3.4254231452941895,342.0
3.4333512783050537,339.0
3.438504219055176,334.0
3.4428391456604004,333.0
3.450324058532715,339.0
3.4556691646575928,346.0
3.4607481956481934,321.0
3.4652562141418457,345.0
3.470114231109619,360.0
3.4742143154144287,365.0
3.481710195541382,345.0
3.4881751537323,357.0
3.4928340911865234,361.0
3.5000882148742676,360.0
3.5053551197052,362.0
3.509657144546509,352.0
3.5172972679138184,348.0
3.525458335876465,357.0
3.5338480472564697,342.0
3.5421690940856934,315.0
3.5477781295776367,342.0
3.555460214614868,334.0
3.560967206954956,351.0
3.5692601203918457,354.0
3.5738413333892822,356.0
3.578519105911255,358.0
3.583101272583008,351.0
3.5882821083068848,360.0
3.5928211212158203,358.0
3.600386142730713,364.0
3.6056950092315674,369.0
3.610725164413452,327.0
3.6186182498931885,350.0
3.6266441345214844,352.0
3.631314277648926,346.0
3.638728380203247,345.0
3.6438491344451904,348.0
3.651327133178711,337.0
3.658795118331909,329.0
3.666830062866211,345.0
3.671868324279785,332.0
3.6763813495635986,334.0
3.681094169616699,327.0
3.685206174850464,357.0
3.692850351333618,348.0
3.6978821754455566,346.0
3.705461025238037,356.0
3.7109601497650146,321.0
3.7152462005615234,331.0
3.722466230392456,325.0
3.7272913455963135,333.0
3.7321982383728027,337.0
3.7395782470703125,313.0
3.7451283931732178,311.0
3.749192237854004,322.0
3.755855083465576,339.0
3.7606301307678223,334.0
3.7655222415924072,335.0
3.772982120513916,329.0
3.7809221744537354,341.0
3.7889201641082764,345.0
3.794501304626465,346.0
3.7994801998138428,341.0
3.804561138153076,319.0
3.8087611198425293,339.0
3.8168740272521973,331.0
3.822679042816162,332.0
3.830620288848877,332.0
3.8365321159362793,334.0
3.8410732746124268,336.0
3.8485071659088135,339.0
3.856544017791748,334.0
3.8619980812072754,352.0
3.8665401935577393,349.0
3.874011278152466,361.0
3.880028247833252,354.0
3.8845021724700928,356.0
3.8893959522247314,368.0
3.893590211868286,356.0
3.901752233505249,357.0
3.9098501205444336,341.0
3.9170613288879395,343.0
3.922642946243286,340.0
3.9274282455444336,332.0
3.9357314109802246,323.0
3.9402551651000977,337.0
3.9453630447387695,332.0
3.9494102001190186,309.0
3.9562649726867676,321.0
3.961787223815918,332.0
3.9661481380462646,324.0
3.973126173019409,357.0
3.9785401821136475,343.0
3.9825212955474854,346.0
3.9888651371002197,342.0
3.993791103363037,362.0
3.99894118309021,370.0
4.0040130615234375,351.0
4.008043050765991,349.0
4.013180255889893,356.0
4.017283201217651,347.0
4.022423028945923,342.0
4.027070045471191,332.0
4.031646966934204,337.0
4.038334131240845,338.0
4.043290138244629,338.0
4.049988269805908,338.0
4.056774139404297,334.0
4.06440806388855,342.0
4.072240114212036,336.0
4.077477216720581,334.0
4.08519721031189,342.0
4.089841365814209,362.0
4.0966761112213135,341.0
4.1016762256622314,313.0
4.1088151931762695,290.0
4.116088151931763,323.0
4.120610237121582,323.0
4.125101089477539,304.0
4.1301209926605225,326.0
4.134828090667725,332.0
4.142117261886597,325.0
4.149498224258423,336.0
4.1542582511901855,339.0
4.1582190990448,337.0
4.165017127990723,326.0
4.170732021331787,352.0
4.1749351024627686,348.0
4.1800010204315186,332.0
4.184530973434448,347.0
4.19177508354187,342.0
4.19678807258606,333.0
4.201527118682861,337.0
4.20840311050415,336.0
4.213646173477173,302.0
4.217763185501099,325.0
4.2224321365356445,308.0
4.226447105407715,308.0
4.233551263809204,318.0
4.238784074783325,331.0
4.243257284164429,330.0
4.2501702308654785,320.0
4.255229949951172,319.0
4.260072231292725,339.0
4.264386177062988,316.0
4.269196033477783,318.0
4.277045011520386,323.0
4.281705141067505,317.0
4.286728382110596,313.0
4.291296005249023,308.0
4.298518180847168,315.0
4.306158065795898,317.0
4.314193248748779,321.0
4.321705102920532,318.0
4.326764106750488,309.0
4.333969354629517,324.0
4.3388731479644775,334.0
4.343542098999023,335.0
4.3521811962127686,329.0
4.3572611808776855,334.0
4.364416122436523,317.0
4.37250828742981,341.0
4.380144119262695,340.0
4.384781122207642,343.0
4.391992092132568,320.0
4.397136211395264,321.0
4.401703357696533,294.0
4.40953803062439,323.0
4.414129257202148,315.0
4.418326139450073,327.0
4.425499200820923,318.0
4.430843114852905,321.0
4.435198068618774,326.0
4.442970275878906,325.0
4.450577259063721,328.0
4.45803427696228,319.0
4.464946269989014,329.0
4.472567081451416,326.0
4.478003978729248,334.0
4.482021331787109,338.0
4.488643169403076,324.0
4.494063138961792,328.0
4.498720169067383,316.0
4.503710031509399,312.0
4.507588148117065,302.0
4.514142036437988,308.0
4.521581172943115,306.0
4.526565313339233,308.0
4.5311360359191895,307.0
4.535290241241455,315.0
4.543123006820679,313.0
4.547769069671631,315.0
4.5523881912231445,324.0
4.559995174407959,325.0
4.564618110656738,320.0
4.569372177124023,327.0
4.573575258255005,323.0
4.580142259597778,319.0
4.585480213165283,303.0
4.5931761264801025,300.0
4.6002020835876465,305.0
4.60519814491272,294.0
4.609571218490601,303.0
4.616359233856201,295.0
4.6231911182403564,325.0
4.628713130950928,298.0
4.632820129394531,294.0
4.637783050537109,307.0
4.641896963119507,317.0
4.646884202957153,321.0
4.651143312454224,308.0
4.658266305923462,327.0
4.663292169570923,332.0
4.667252063751221,333.0
4.6746532917022705,290.0
4.6812920570373535,309.0
4.686357021331787,325.0
4.690813302993774,302.0
4.697742223739624,304.0
4.703119277954102,315.0
4.707001209259033,303.0
4.71178126335144,313.0
4.7156641483306885,294.0
4.722161293029785,302.0
4.727240324020386,297.0
4.732262134552002,321.0
4.737366199493408,298.0
4.7418951988220215,311.0
4.746857166290283,309.0
4.7514121532440186,314.0
4.755818128585815,304.0
4.759894132614136,302.0
4.766991138458252,295.0
4.771968126296997,290.0
4.7768073081970215,285.0
4.78171706199646,289.0
4.788865089416504,304.0
4.794157266616821,307.0
4.801973104476929,263.0
4.806541204452515,295.0
4.813558101654053,313.0
4.818659067153931,317.0
4.823400974273682,303.0
4.830201148986816,318.0
4.835569143295288,322.0
4.840137004852295,299.0
4.846816062927246,325.0
4.8517210483551025,301.0
4.858311176300049,309.0
4.863582134246826,302.0
4.868201017379761,305.0
4.875401020050049,299.0
4.880167245864868,302.0
4.884919166564941,305.0
4.892237186431885,301.0
4.899691104888916,311.0
4.906094074249268,287.0
4.911880254745483,328.0
4.915942192077637,303.0
4.922720193862915,316.0
4.929696083068848,323.0
4.934904098510742,320.0
4.941996097564697,331.0
4.94713020324707,318.0
4.951994180679321,316.0
4.95720911026001,314.0
4.9644060134887695,305.0
4.970745086669922,309.0
4.974804162979126,287.0
4.981950044631958,302.0
4.988140106201172,293.0
4.992109060287476,277.0
4.999834299087524,322.0
5.005449056625366,322.0
5.010467052459717,309.0
5.018539190292358,304.0
5.0267181396484375,314.0
5.0309319496154785,310.0
5.035551071166992,300.0
5.043455123901367,309.0
5.048765182495117,318.0
5.054398059844971,311.0
5.059514284133911,271.0
5.066964149475098,280.0
5.072257041931152,295.0
5.077769994735718,299.0
5.082763195037842,291.0
5.08809232711792,289.0
5.093047142028809,297.0
5.101854085922241,318.0
5.110188245773315,320.0
5.115516185760498,315.0
5.1207802295684814,298.0
5.1250901222229,308.0
5.130170106887817,339.0
5.1349101066589355,326.0
5.142963409423828,324.0
5.147653102874756,318.0
5.152605295181274,317.0
5.1576902866363525,296.0
5.162867307662964,308.0
5.16728401184082,294.0
5.172532081604004,303.0
5.17664909362793,307.0
5.184836149215698,293.0
5.189886093139648,301.0
5.195166110992432,308.0
5.1997740268707275,313.0
5.2046520709991455,306.0
5.208844184875488,318.0
5.216206073760986,318.0
5.221479177474976,308.0
5.2253501415252686,326.0
5.230382204055786,320.0
5.235170125961304,308.0
5.24291205406189,309.0
5.250292062759399,317.0
5.255563020706177,302.0
5.260555028915405,306.0
5.264968395233154,311.0
5.271698951721191,309.0
5.277212142944336,312.0
5.282099962234497,325.0
5.288742303848267,321.0
5.294318199157715,324.0
5.299236297607422,323.0
5.304196119308472,329.0
5.3083860874176025,339.0
5.315469264984131,304.0
5.32253623008728,323.0
5.328351020812988,316.0
5.332373142242432,318.0
5.33907413482666,315.0
5.346724271774292,315.0
5.352183103561401,314.0
5.359709978103638,299.0
5.367001295089722,301.0
5.372482061386108,299.0
5.377399206161499,310.0
5.382030248641968,319.0
5.389117956161499,320.0
5.394402027130127,324.0
5.399217128753662,315.0
5.404328346252441,317.0
5.408716201782227,320.0
5.413595199584961,319.0
5.418435096740723,319.0
5.422867059707642,315.0
5.427312135696411,327.0
5.435010194778442,288.0
5.443030118942261,264.0
5.450515031814575,295.0
5.45842719078064,307.0
5.463762283325195,315.0
5.468757152557373,311.0
5.473549127578735,312.0
5.4788901805877686,316.0
5.483313322067261,323.0
5.490332365036011,316.0
5.495671033859253,313.0
5.500256061553955,330.0
5.505117177963257,339.0
5.510342121124268,333.0
5.514691114425659,319.0
5.519107103347778,316.0
5.524046182632446,320.0
5.531219005584717,315.0
5.539055109024048,316.0
5.544118165969849,315.0
5.548535108566284,322.0
5.555342197418213,322.0
5.560780048370361,314.0
5.5686821937561035,311.0
5.575638055801392,318.0
5.581025123596191,331.0
5.588297128677368,338.0
5.593681335449219,333.0
5.601517200469971,329.0
5.606474161148071,332.0
5.613290071487427,326.0
5.618572235107422,333.0
5.626618146896362,323.0
5.6339802742004395,313.0
5.639045238494873,313.0
5.6431543827056885,319.0
5.650363206863403,311.0
5.655729293823242,305.0
5.660794258117676,311.0
5.669347286224365,281.0
5.6745500564575195,318.0
5.681880235671997,334.0
5.6900951862335205,326.0
5.695443153381348,325.0
5.700042009353638,338.0
5.705175161361694,325.0
5.709559202194214,333.0
5.716903209686279,302.0
5.721949338912964,328.0
5.726652145385742,319.0
5.731258153915405,318.0
5.735555171966553,307.0
5.740384101867676,289.0
5.747359037399292,314.0
5.7522571086883545,304.0
5.757059097290039,305.0
5.762192249298096,312.0
5.7666120529174805,319.0
5.7711522579193115,320.0
5.775071144104004,314.0
5.781678199768066,324.0
5.786888360977173,295.0
5.7908453941345215,325.0
5.797279119491577,326.0
5.802589178085327,319.0
5.807641267776489,309.0
5.812706232070923,303.0
5.8171491622924805,305.0
5.824866056442261,304.0
5.828508138656616,310.0
5.833163022994995,302.0
5.838199138641357,300.0
5.842775106430054,279.0
5.849897146224976,302.0
5.854885101318359,282.0
5.859013319015503,306.0
5.863730192184448,303.0
5.867735147476196,301.0
5.87475323677063,310.0
5.881259202957153,312.0
5.888422250747681,313.0
5.894097328186035,294.0
5.901750087738037,300.0
5.906440258026123,268.0
5.910441160202026,288.0
5.9187562465667725,260.0
5.923381090164185,289.0
5.928131103515625,312.0
5.932740211486816,296.0
5.937726020812988,279.0
5.942309141159058,304.0
5.949352979660034,318.0
5.956790208816528,320.0
5.964001178741455,321.0
5.971768140792847,329.0
5.977262258529663,332.0
5.985243320465088,343.0
5.989793062210083,339.0
5.996866226196289,312.0
6.0024261474609375,334.0
6.006992340087891,322.0
6.013652086257935,325.0
6.0186192989349365,328.0
6.025761127471924,321.0
6.0332512855529785,322.0
6.0401930809021,316.0
6.047687292098999,329.0
6.053120136260986,335.0
6.057039260864258,333.0
6.063544273376465,338.0
6.068968296051025,340.0
6.073559045791626,348.0
6.080895185470581,337.0
6.08872127532959,339.0
6.094123125076294,342.0
6.0989391803741455,335.0
6.106129169464111,335.0
6.111730337142944,333.0
6.116187334060669,330.0
6.1237452030181885,312.0
6.131631135940552,328.0
6.139368295669556,324.0
6.147159099578857,326.0
6.155154228210449,307.0
6.160499334335327,332.0
6.168492078781128,334.0
6.176398277282715,340.0
6.183938026428223,330.0
6.191830158233643,329.0
6.197049140930176,334.0
6.20149827003479,341.0
6.209522247314453,332.0
6.216935157775879,318.0
6.222408294677734,313.0
6.22710919380188,312.0
6.23524022102356,314.0
6.243865251541138,317.0
6.248526096343994,323.0
6.255620241165161,304.0
6.2610392570495605,314.0
6.265937328338623,322.0
6.273358106613159,321.0
6.278785228729248,323.0
6.2832300662994385,316.0
6.288870334625244,329.0
6.293585300445557,321.0
6.2982611656188965,323.0
6.303354263305664,324.0
6.30773401260376,320.0
6.31267523765564,314.0
6.31734824180603,306.0
6.325577974319458,313.0
6.3336851596832275,308.0
6.338715314865112,310.0
6.343160152435303,310.0
6.351282358169556,302.0
6.3563079833984375,318.0
6.363574028015137,320.0
6.368619203567505,300.0
6.376572370529175,315.0
6.384731292724609,322.0
6.392422199249268,315.0
6.4002392292022705,325.0
6.405013084411621,335.0
6.409908056259155,297.0
6.418238162994385,313.0
6.422533273696899,311.0
6.426823377609253,309.0
6.431674242019653,307.0
6.438857078552246,309.0
6.443993091583252,313.0
6.451491117477417,308.0
6.455938100814819,313.0
6.460801124572754,290.0
6.468507289886475,325.0
6.473152160644531,333.0
6.480701208114624,334.0
6.485995054244995,338.0
6.490840196609497,334.0
6.496222019195557,340.0
6.501024007797241,347.0
6.5059850215911865,355.0
6.5107421875,332.0
6.515395164489746,317.0
6.52039909362793,315.0
6.524567127227783,325.0
6.53199315071106,313.0
6.538189172744751,288.0
6.542877197265625,304.0
6.547364234924316,305.0
6.551883220672607,305.0
6.5563812255859375,310.0
6.560718059539795,316.0
6.56882119178772,306.0
6.576688289642334,306.0
6.5847930908203125,300.0
6.592345237731934,314.0
6.600274324417114,325.0
6.605521202087402,302.0
6.610401153564453,305.0
6.615488052368164,306.0
6.623088121414185,316.0
6.631230115890503,317.0
6.63685417175293,332.0
6.641036033630371,311.0
6.648207187652588,307.0
6.653909206390381,309.0
6.657875061035156,317.0
6.663114070892334,332.0
6.667088270187378,336.0
6.6741859912872314,321.0
6.680124282836914,314.0
6.685071229934692,319.0
6.6894731521606445,327.0
6.694233179092407,308.0
6.698892116546631,286.0
6.7036292552948,285.0
6.707884073257446,303.0
6.714939117431641,306.0
6.7205681800842285,287.0
6.724997282028198,309.0
6.730143070220947,308.0
6.73491096496582,330.0
6.739580154418945,351.0
6.744140148162842,363.0
6.751721143722534,362.0
6.759006023406982,356.0
6.766824245452881,358.0
6.772018194198608,361.0
6.776821136474609,404.0
6.781465291976929,403.0
6.788895130157471,368.0
6.796882152557373,340.0
6.8018481731414795,345.0
6.809702157974243,343.0
6.81731915473938,321.0
6.824578046798706,281.0
6.829645156860352,274.0
6.833895206451416,279.0
6.841351270675659,271.0
6.848388195037842,240.0
6.8539509773254395,248.0
6.858422040939331,244.0
6.863091230392456,264.0
6.867213249206543,242.0
6.874966144561768,240.0
6.87981915473938,268.0
6.883763313293457,276.0
6.888318061828613,271.0
6.893248081207275,272.0
6.899980068206787,283.0
6.905155181884766,293.0
6.9093101024627686,284.0
6.916650056838989,286.0
6.921651363372803,295.0
6.926185131072998,296.0
6.933221101760864,294.0
6.938305139541626,317.0
6.943153142929077,319.0
6.950418949127197,324.0
6.957864284515381,328.0
6.963497161865234,334.0
6.96834921836853,337.0
6.9765331745147705,344.0
6.9847941398620605,316.0
6.992917060852051,306.0
7.000577211380005,319.0
7.007920265197754,321.0
7.015089273452759,324.0
7.020676136016846,315.0
7.025525093078613,316.0
7.0333051681518555,303.0
7.0385682582855225,302.0
7.042863130569458,310.0
7.050222158432007,323.0
7.055343151092529,318.0
7.0600221157073975,320.0
7.067087173461914,326.0
7.074626207351685,323.0
7.081831216812134,328.0
7.08964204788208,332.0
7.095321178436279,316.0
7.099369049072266,321.0
7.106029033660889,312.0
7.11170506477356,314.0
7.116006135940552,325.0
7.1228742599487305,328.0
7.130415201187134,330.0
7.135545253753662,331.0
7.140020132064819,313.0
7.147096157073975,359.0
7.1525890827178955,365.0
7.1572041511535645,348.0
7.162028074264526,356.0
7.166023254394531,366.0
7.172840356826782,361.0
7.178286075592041,368.0
7.182789325714111,365.0
7.189773082733154,375.0
7.1952550411224365,335.0
7.199444055557251,343.0
7.204437017440796,316.0
7.208459138870239,319.0
7.21332311630249,302.0
7.217224359512329,315.0
7.2247161865234375,313.0
7.229884147644043,321.0
7.233916282653809,323.0
7.241312026977539,334.0
7.246183156967163,329.0
7.250215291976929,334.0
7.255007028579712,330.0
7.25976824760437,325.0
7.266918182373047,315.0
7.271714210510254,339.0
7.275745153427124,332.0
7.282816171646118,323.0
7.287887096405029,320.0
7.291792154312134,328.0
7.296279191970825,323.0
7.300060272216797,327.0
7.30655312538147,333.0
7.314121961593628,311.0
7.319204092025757,316.0
7.323716163635254,337.0
7.32861328125,344.0
7.332590103149414,349.0
7.339210033416748,327.0
7.344225168228149,335.0
7.348510980606079,328.0
7.35323429107666,347.0
7.357201337814331,337.0
7.3638482093811035,329.0
7.368634223937988,341.0
7.376483201980591,331.0
7.38112735748291,325.0
7.3856823444366455,328.0
7.3931121826171875,308.0
7.397569179534912,325.0
7.402710199356079,347.0
7.406937122344971,356.0
7.413454294204712,357.0
7.418514966964722,356.0
7.425580024719238,361.0
7.432973146438599,368.0
7.43978214263916,372.0
7.44699501991272,368.0
7.452553987503052,373.0
7.457196235656738,372.0
7.462361097335815,368.0
7.466500282287598,354.0
7.471654176712036,340.0
7.4761741161346436,344.0
7.4812281131744385,338.0
7.4883482456207275,361.0
7.493677139282227,335.0
7.49809718132019,337.0
7.502368211746216,356.0
7.507063150405884,367.0
7.513782024383545,376.0
7.518777132034302,359.0
7.526263236999512,374.0
7.533316135406494,390.0
7.538434028625488,391.0
7.542941331863403,391.0
7.550129175186157,395.0
7.555122375488281,396.0
7.559798002243042,398.0
7.564164161682129,401.0
7.569133043289185,390.0
7.576328992843628,406.0
7.581175088882446,402.0
7.585528135299683,400.0
7.590243101119995,420.0
7.5973522663116455,433.0
7.602966070175171,431.0
7.6070473194122314,430.0
7.613978147506714,437.0
7.6192872524261475,431.0
7.624067068099976,432.0
7.629211187362671,470.0
7.6332292556762695,460.0
7.639934062957764,448.0
7.647440195083618,419.0
7.655049085617065,424.0
7.660266160964966,431.0
7.666940212249756,431.0
7.672035217285156,422.0
7.676270246505737,405.0
7.683495283126831,396.0
7.688730239868164,410.0
7.693393230438232,416.0
7.700499057769775,387.0
7.705465078353882,399.0
7.710191249847412,407.0
7.7171971797943115,412.0
7.722301959991455,419.0
7.726348161697388,425.0
7.730759382247925,409.0
7.734827041625977,411.0
7.7419610023498535,405.0
7.746937274932861,419.0
7.7513673305511475,413.0
7.758684158325195,417.0
7.763852119445801,419.0
7.768244981765747,423.0
7.7750279903411865,428.0
7.778838157653809,430.0
7.783616065979004,436.0
7.78826117515564,437.0
7.792952060699463,424.0
7.800135374069214,450.0
7.805389165878296,463.0
7.809406995773315,477.0
7.816718101501465,445.0
7.821704387664795,425.0
7.826578378677368,405.0
7.831256151199341,397.0
7.836316347122192,390.0
7.840327262878418,385.0
7.847245216369629,399.0
7.852197170257568,396.0
7.859997987747192,368.0
7.867109298706055,351.0
7.874814987182617,365.0
7.881720066070557,388.0
7.887343168258667,377.0
7.891870975494385,372.0
7.897338151931763,395.0
7.9020140171051025,400.0
7.907045125961304,403.0
7.914711236953735,395.0
7.920656204223633,392.0
7.924621105194092,386.0
7.931894063949585,384.0
7.937274217605591,382.0
7.941609144210815,381.0
7.946998119354248,379.0
7.9516332149505615,373.0
7.956290245056152,368.0
7.960514068603516,355.0
7.968862056732178,393.0
7.9770731925964355,395.0
7.981908082962036,378.0
7.9895241260528564,361.0
7.9975621700286865,369.0
8.005594253540039,380.0
8.010627269744873,392.0
8.015656232833862,382.0
8.022959232330322,370.0
8.028194189071655,352.0
8.032600164413452,353.0
8.03956413269043,345.0
8.044887065887451,347.0
8.048745155334473,345.0
8.05335021018982,343.0
8.0571870803833,359.0
8.061851263046265,365.0
8.066121101379395,358.0
8.073181390762329,343.0
8.081061124801636,347.0
8.089215993881226,354.0
8.097249031066895,366.0
8.102577209472656,377.0
8.111123085021973,356.0
8.115904092788696,343.0
8.121570110321045,346.0
8.126698017120361,343.0
8.131575107574463,343.0
8.139448165893555,349.0
8.145704984664917,364.0
8.14978814125061,354.0
8.154802322387695,340.0
8.15904426574707,363.0
8.164305210113525,356.0
8.169747114181519,342.0
8.174698114395142,355.0
8.182391166687012,395.0
8.187743186950684,373.0
8.19150424003601,351.0
8.198745250701904,342.0
8.204556226730347,337.0
8.208796262741089,321.0
8.216793298721313,303.0
8.222137212753296,296.0
8.226373195648193,289.0
8.233808279037476,267.0
8.241352319717407,237.0
8.246375322341919,225.0
8.250585079193115,241.0
8.258095264434814,255.0
8.263671159744263,261.0
8.268518209457397,246.0
8.27331829071045,246.0
8.280379295349121,255.0
8.286051273345947,280.0
8.290611267089844,293.0
8.29853630065918,306.0
8.306909322738647,315.0
8.312761068344116,327.0
8.318035125732422,334.0
8.32705307006836,346.0
8.334792375564575,328.0
8.342981100082397,323.0
8.34759521484375,341.0
8.352447986602783,336.0
8.36049222946167,344.0
8.364723205566406,323.0
8.368930101394653,311.0
8.377180337905884,323.0
8.38202428817749,300.0
8.387233018875122,324.0
8.39164423942566,298.0
8.396823167800903,277.0
8.401566982269287,279.0
8.409725189208984,287.0
8.41727614402771,256.0
8.424806356430054,229.0
8.432047128677368,217.0
8.439893007278442,250.0
8.447757244110107,219.0
8.45615816116333,214.0
8.46449613571167,239.0
8.472617149353027,239.0
8.48020625114441,237.0
8.485714197158813,233.0
8.493974208831787,235.0
8.498537063598633,248.0
8.503470182418823,298.0
8.507458209991455,303.0
8.514543294906616,298.0
8.522057056427002,283.0
8.527522087097168,289.0
8.53224229812622,267.0
8.53971815109253,264.0
8.547133207321167,263.0
8.552581310272217,277.0
8.559943199157715,273.0
8.564178943634033,253.0
8.568323135375977,258.0
8.576442241668701,270.0
8.581355094909668,278.0
8.58886194229126,271.0
8.594259023666382,246.0
8.602041244506836,262.0
8.606747150421143,270.0
8.613813161849976,280.0
8.619409322738647,253.0
8.623769283294678,238.0
8.628851413726807,235.0
8.632936954498291,222.0
8.637861251831055,199.0
8.64198613166809,193.0
8.646632194519043,181.0
8.651523113250732,170.0
8.658716201782227,143.0
8.664064168930054,119.0
8.66884708404541,121.0
8.676529169082642,111.0
8.681532144546509,86.0
8.686554193496704,130.0
8.690998077392578,165.0
8.698333263397217,104.0
8.703780174255371,112.0
8.708483219146729,118.0
8.713600158691406,154.0
8.718459129333496,172.0
8.722919225692749,159.0
8.727278232574463,152.0
8.734698057174683,175.0
8.741506099700928,155.0
8.746318101882935,145.0
8.75051212310791,156.0
8.758026123046875,146.0
8.765114307403564,137.0
8.770821332931519,114.0
8.775081157684326,118.0
8.780009031295776,104.0
8.784810066223145,99.0
8.791754007339478,92.0
8.796938180923462,81.0
8.801516056060791,70.0
8.80879521369934,71.0
8.816323280334473,135.0
8.821720123291016,138.0
8.826362133026123,82.0
8.833649158477783,77.0
8.838849067687988,98.0
8.843270301818848,122.0
8.847695112228394,127.0
8.85256028175354,113.0
8.859893083572388,91.0
8.864315271377563,100.0
8.86888599395752,96.0
8.873311042785645,83.0
8.880207300186157,75.0
8.885667085647583,101.0
8.893121004104614,96.0
8.90043020248413,44.0
8.908196210861206,40.0
8.913636207580566,37.0
8.91871428489685,53.0
8.923159122467041,50.0
8.929915189743042,40.0
8.935156106948853,39.0
8.940011024475098,41.0
8.946989059448242,41.0
8.95248007774353,36.0
8.960398197174072,38.0
8.96841025352478,40.0
8.975643157958984,44.0
8.983342170715332,37.0
8.988433361053467,36.0
8.993019342422485,36.0
9.000686168670654,38.0
9.008376121520996,40.0
9.013221263885498,34.0
9.017109155654907,40.0
9.024461269378662,36.0
9.029551267623901,37.0
9.034341096878052,36.0
9.041207075119019,40.0
9.048253297805786,35.0
9.053917169570923,36.0
9.05807614326477,38.0
9.064940214157104,36.0
9.072705030441284,39.0
9.080518245697021,25.0
9.08587908744812,36.0
9.090360164642334,33.0
9.097490310668945,33.0
9.105385065078735,34.0
9.110953092575073,37.0
9.115024328231812,35.0
9.122140169143677,33.0
9.127251148223877,33.0
9.131922245025635,35.0
9.138836145401001,38.0
9.144104242324829,36.0
9.148478031158447,27.0
9.155616044998169,34.0
9.163771152496338,35.0
9.168968200683594,35.0
9.1736421585083,33.0
9.180161237716675,34.0
9.185675144195557,32.0
9.18998408317566,31.0
9.196899175643921,32.0
9.20217227935791,37.0
9.210086345672607,33.0
9.214722156524658,39.0
9.221788167953491,37.0
9.226842164993286,32.0
9.234764099121094,27.0
9.24196720123291,34.0
9.247100353240967,27.0
9.251641273498535,32.0
9.25945496559143,33.0
9.266987085342407,36.0
9.271937131881714,36.0
9.27665114402771,34.0
9.283744096755981,37.0
9.291483163833618,32.0
9.296578168869019,39.0
9.301229238510132,27.0
9.308496236801147,32.0
9.313667058944702,37.0
9.318286180496216,32.0
9.326356172561646,34.0
9.333516120910645,35.0
9.338556289672852,32.0
9.343282222747803,34.0
9.347365140914917,36.0
9.351528406143188,36.0
9.35875916481018,27.0
9.36622428894043,29.0
9.373210191726685,35.0
9.378794193267822,30.0
9.382898330688477,37.0
9.387920141220093,33.0
9.392229318618774,30.0
9.40020203590393,31.0
9.404956340789795,34.0
9.409579038619995,33.0
9.416697263717651,34.0
9.421496152877808,35.0
9.425268173217773,30.0
9.430090188980103,35.0
9.433961153030396,31.0
9.441256999969482,27.0
9.4481782913208,32.0
9.455233097076416,30.0
9.460710287094116,34.0
9.46538233757019,31.0
9.472340106964111,34.0
9.479937076568604,32.0
9.485141038894653,32.0
9.490095138549805,31.0
9.497253179550171,32.0
9.502910137176514,31.0
9.507418155670166,31.0
9.514402151107788,33.0
9.522027015686035,34.0
9.526685953140259,31.0
9.534439325332642,33.0
9.541682243347168,32.0
9.547058343887329,33.0
9.551767110824585,31.0
9.559523105621338,30.0
9.566877365112305,33.0
9.571933269500732,32.0
9.576748132705688,33.0
9.581067085266113,27.0
9.585536003112793,31.0
9.592303276062012,33.0
9.600037097930908,35.0
9.60552716255188,28.0
9.610563278198242,32.0
9.616032123565674,36.0
9.623449087142944,31.0
9.631564140319824,31.0
9.637224197387695,33.0
9.641516208648682,34.0
9.64655613899231,34.0
9.650694131851196,34.0
9.655633211135864,32.0
9.659857273101807,36.0
9.66454815864563,33.0
9.668909072875977,35.0
9.676940202713013,29.0
9.682032108306885,30.0
9.687391996383667,29.0
9.691365242004395,33.0
9.698055267333984,34.0
9.703858375549316,31.0
9.707795143127441,33.0
9.712484121322632,24.0
9.716793298721313,31.0
9.72183609008789,28.0
9.726453065872192,33.0
9.733527183532715,33.0
9.738620281219482,30.0
9.742883205413818,33.0
9.750063180923462,32.0
9.757163047790527,27.0
9.762522220611572,25.0
9.76658010482788,31.0
9.771512269973755,30.0
9.775444984436035,32.0
9.782965183258057,24.0
9.788170099258423,30.0
9.792333126068115,31.0
9.79946231842041,31.0
9.80611515045166,29.0
9.813590049743652,28.0
9.818983316421509,34.0
9.823659181594849,35.0
9.83017611503601,30.0
9.835434198379517,29.0
9.840396165847778,34.0
9.848031044006348,32.0
9.853458166122437,33.0
9.857689142227173,22.0
9.86309814453125,31.0
9.867048263549805,27.0
9.872779130935669,30.0
9.877379179000854,33.0
9.882302045822144,27.0
9.889848232269287,26.0
9.897462129592896,35.0
9.90349531173706,29.0
9.907540082931519,30.0
9.914737224578857,29.0
9.923034191131592,31.0
9.9291672706604,29.0
9.933134078979492,30.0
9.937955141067505,32.0
9.943074226379395,29.0
9.952026128768921,33.0
9.956879138946533,32.0
9.964501142501831,30.0
9.972973108291626,32.0
9.981709241867065,30.0
9.988643169403076,29.0
9.99345326423645,30.0
10.003062009811401,23.0
10.007726192474365,31.0
10.013168334960938,28.0
10.017390251159668,32.0
10.026691198348999,30.0
10.034686088562012,31.0
10.042916297912598,31.0
10.047890186309814,32.0
10.05211615562439,30.0
10.0573570728302,30.0
10.065096378326416,28.0
10.071882009506226,25.0
10.076553106307983,24.0
10.081611156463623,30.0
10.089266300201416,33.0
10.097613096237183,31.0
10.105628252029419,31.0
10.11506724357605,32.0
10.120541334152222,30.0
10.126338243484497,30.0
10.13139820098877,29.0
10.139312267303467,34.0
10.148263216018677,34.0
10.155644178390503,30.0
10.162249088287354,29.0
10.166704177856445,30.0
10.172456979751587,33.0
10.17768907546997,25.0
10.182614088058472,31.0
10.188339948654175,34.0
10.192898035049438,28.0
10.201742172241211,30.0
10.207005262374878,26.0
10.215458154678345,31.0
10.221405267715454,26.0
10.226819276809692,31.0
10.231147050857544,29.0
10.236415147781372,30.0
10.240555047988892,32.0
10.246340274810791,30.0
10.251120328903198,30.0
10.257111072540283,29.0
10.26478123664856,29.0
10.270808219909668,33.0
10.276140213012695,30.0
10.281530141830444,31.0
10.288778066635132,30.0
10.294790267944336,29.0
10.303349018096924,32.0
10.308470010757446,30.0
10.316233158111572,30.0
10.322822332382202,30.0
10.327377319335938,24.0
10.332784175872803,23.0
10.33816409111023,31.0
10.343369960784912,33.0
10.348250150680542,30.0
10.356023073196411,30.0
10.364609003067017,29.0
10.372384071350098,23.0
10.379346370697021,32.0
10.383769273757935,31.0
10.393714189529419,30.0
10.398532152175903,29.0
10.404380321502686,31.0
10.40980315208435,30.0
10.414374351501465,31.0
10.419475078582764,30.0
10.424968957901001,24.0
10.430547952651978,30.0
10.436563968658447,29.0
10.441862344741821,29.0
10.447396278381348,29.0
10.456066131591797,31.0
10.463534116744995,23.0
10.469229221343994,30.0
10.474030256271362,28.0
10.478552103042603,25.0
10.48379111289978,27.0
10.492337226867676,29.0
10.49847412109375,23.0
10.503656387329102,31.0
10.508248090744019,30.0
10.513355016708374,29.0
10.517979145050049,30.0
10.522898197174072,23.0
10.530524253845215,31.0
10.535963296890259,30.0
10.541090250015259,28.0
10.547938108444214,31.0
10.55344009399414,31.0
10.557417154312134,28.0
10.564431190490723,28.0
10.572453260421753,32.0
10.580385208129883,29.0
10.585827112197876,29.0
10.590541124343872,24.0
10.598013162612915,29.0
10.604109048843384,30.0
10.60814118385315,28.0
10.615608215332031,33.0
10.621504068374634,26.0
10.625673055648804,27.0
10.63385009765625,31.0
10.638944149017334,28.0
10.64372205734253,32.0
10.651536226272583,31.0
10.656268119812012,28.0
10.661060094833374,32.0
10.6654052734375,28.0
10.672713994979858,29.0
10.67814826965332,27.0
10.682557344436646,31.0
10.690121173858643,28.0
10.69561505317688,30.0
10.699418306350708,33.0
10.704405069351196,30.0
10.708375215530396,30.0
10.713420152664185,30.0
10.717953205108643,30.0
10.725141048431396,22.0
10.730299234390259,30.0
10.735043048858643,31.0
10.739790201187134,31.0
10.744830131530762,28.0
10.749053955078125,26.0
10.756239175796509,32.0
10.764211177825928,26.0
10.771948099136353,30.0
10.777289152145386,29.0
10.78492522239685,29.0
10.789682388305664,30.0
10.796941041946411,29.0
10.802292108535767,28.0
10.810200214385986,31.0
10.817941188812256,31.0
10.825395345687866,27.0
10.830393075942993,28.0
10.83503007888794,30.0
10.842226266860962,30.0
10.84695816040039,30.0
10.8510000705719,29.0
10.855700016021729,29.0
10.860172033309937,25.0
10.867133378982544,29.0
10.87476921081543,30.0
10.881823062896729,28.0
10.886815071105957,31.0
10.891406059265137,21.0
10.898494005203247,29.0
10.906025171279907,21.0
10.913326263427734,31.0
10.918897151947021,35.0
10.92685317993164,27.0
10.931987047195435,30.0
10.937339305877686,28.0
10.94207215309143,28.0
10.95064115524292,24.0
10.959758281707764,27.0
10.968449115753174,34.0
10.97637128829956,33.0
10.983832120895386,20.0
10.991465091705322,31.0
10.996100187301636,29.0
11.000244140625,31.0
11.004801034927368,27.0
11.009868144989014,28.0
11.014207124710083,23.0
11.019143342971802,31.0
11.027421951293945,21.0
11.032077074050903,30.0
11.037383317947388,29.0
11.04220700263977,28.0
11.050518035888672,27.0
11.055791139602661,23.0
11.06062912940979,28.0
11.065192222595215,28.0
11.072436094284058,29.0
11.0801522731781,29.0
11.088380336761475,27.0
11.09329628944397,26.0
11.097846031188965,33.0
11.10510802268982,27.0
11.110779285430908,28.0
11.115395069122314,22.0
11.122184991836548,28.0
11.130670070648193,27.0
11.135650157928467,30.0
11.140077114105225,28.0
11.145060300827026,31.0
11.15045714378357,30.0
11.156394004821777,28.0
11.163592338562012,26.0
11.17194128036499,30.0
11.176902294158936,28.0
11.181475162506104,27.0
11.188896179199219,27.0
11.194135189056396,28.0
11.199104070663452,24.0
11.204515218734741,27.0
11.209498167037964,28.0
11.220554113388062,26.0
11.226161241531372,22.0
11.236853122711182,27.0
11.245323181152344,29.0
11.250018119812012,29.0
11.255367279052734,31.0
11.261790037155151,28.0
11.266587257385254,26.0
11.271563053131104,28.0
11.278170108795166,29.0
11.283222198486328,30.0
11.288179397583008,29.0
11.29491925239563,26.0
11.299813270568848,28.0
11.304811000823975,27.0
11.31187915802002,28.0
11.320425033569336,27.0
11.328615188598633,31.0
11.3367280960083,27.0
11.345003128051758,28.0
11.35326623916626,30.0
11.358095169067383,24.0
11.36354112625122,27.0
11.368449211120605,26.0
11.373201131820679,27.0
11.383151292800903,29.0
11.396533012390137,29.0
11.40366816520691,31.0
11.404267072677612,25.0
11.404531955718994,19.0
11.404759168624878,28.0
11.405027151107788,28.0
11.405273199081421,27.0
11.405516147613525,29.0
11.405734300613403,27.0
11.405955076217651,31.0
11.406169176101685,26.0
11.406387329101562,26.0
11.40660810470581,30.0
11.40682601928711,30.0
11.407042026519775,21.0
11.407299280166626,29.0
11.407544136047363,28.0
11.407831192016602,26.0
11.408055067062378,29.0
11.408278226852417,19.0
11.408497333526611,26.0
11.408716201782227,25.0
11.408933162689209,27.0
11.409489154815674,26.0
11.409841299057007,25.0
11.410141944885254,29.0
11.410386323928833,27.0
11.410600185394287,30.0
11.410816192626953,27.0
11.411030054092407,28.0
11.411315202713013,29.0
11.411877155303955,28.0
11.4121572971344,26.0
11.41239619255066,25.0
11.412625312805176,21.0
11.412846088409424,26.0
11.413084268569946,17.0
11.413380146026611,31.0
11.413600206375122,27.0
11.413818120956421,27.0
11.41403603553772,20.0
11.414257287979126,25.0
11.41447401046753,26.0
11.414690256118774,25.0
11.414924144744873,28.0
11.415144205093384,26.0
11.415369033813477,26.0
11.415590286254883,25.0
11.415804147720337,28.0
11.416029930114746,20.0
11.416250228881836,29.0
11.4168381690979,22.0
11.417236089706421,24.0
11.417503118515015,24.0
11.417734146118164,25.0
11.417957305908203,28.0
11.418187141418457,26.0
11.418408393859863,30.0
11.418632984161377,28.0
11.418856382369995,29.0
11.41941523551941,19.0
11.419730186462402,25.0
11.419985294342041,29.0
11.42022705078125,26.0
11.420467376708984,26.0
11.42070722579956,25.0
11.42094111442566,25.0
11.421173095703125,28.0
11.42140007019043,29.0
11.421623229980469,26.0
11.421870231628418,28.0
11.422092199325562,29.0
11.42231822013855,28.0
11.42254638671875,27.0
11.42276930809021,28.0
11.422986030578613,25.0
11.423219203948975,25.0
11.423444032669067,21.0
11.423671245574951,26.0
11.423907279968262,27.0
11.424129009246826,20.0
11.424350023269653,27.0
11.424572229385376,28.0
11.425105333328247,27.0
11.425415277481079,27.0
11.425654172897339,25.0
11.425889015197754,27.0
11.426122188568115,26.0
11.426355361938477,23.0
11.426578998565674,29.0
11.426803350448608,28.0
11.427013158798218,26.0
11.427229166030884,27.0
11.427447080612183,25.0
11.42766809463501,27.0
11.42788815498352,29.0
11.42810320854187,27.0
11.428328275680542,26.0
11.428555011749268,27.0
11.428774356842041,26.0
11.428982019424438,26.0
11.42921233177185,27.0
11.429425239562988,25.0
11.429641962051392,25.0
11.429850101470947,12.0
11.430060148239136,24.0
11.430264234542847,27.0
11.430467128753662,26.0
11.430681228637695,28.0
11.43089509010315,25.0
11.431101322174072,24.0
11.431308031082153,26.0
11.431515216827393,26.0
11.43172311782837,28.0
11.431928157806396,28.0
11.43213701248169,21.0
11.432355165481567,26.0
11.432561159133911,26.0
11.432773113250732,27.0
11.432989358901978,19.0
11.433212280273438,28.0
11.43343210220337,28.0
11.433647155761719,23.0
11.433865070343018,28.0
11.434085130691528,31.0
11.43430209159851,27.0
11.434518098831177,27.0
11.43499231338501,28.0
11.43538522720337,30.0
11.435747146606445,25.0
11.435978174209595,20.0
11.436209201812744,22.0
11.436427116394043,26.0
11.436643123626709,25.0
11.436856269836426,26.0
11.437074184417725,27.0
11.43730115890503,26.0
11.437507152557373,27.0
11.437713146209717,25.0
11.4379301071167,28.0
11.43815302848816,27.0
11.438373327255249,24.0
11.438587188720703,26.0
11.438798189163208,27.0
11.439016342163086,24.0
11.439234256744385,21.0
11.439449071884155,26.0
11.439663171768188,27.0
11.439882040023804,24.0
11.440109252929688,25.0
11.440316200256348,28.0
11.440529346466064,26.0
11.440744400024414,24.0
11.440964221954346,25.0
11.441181182861328,20.0
11.441408157348633,25.0
11.441630125045776,28.0
11.441852331161499,27.0
11.442071199417114,28.0
11.442284107208252,26.0
11.442496061325073,30.0
11.44271206855774,27.0
11.442947149276733,27.0
11.443160057067871,19.0
11.443372011184692,27.0
11.443583011627197,31.0
11.443803310394287,24.0
11.444017171859741,20.0
11.444234132766724,26.0
11.444446086883545,23.0
11.444659948348999,27.0
11.445430040359497,24.0
11.445840120315552,24.0
11.446112155914307,26.0
11.446377992630005,28.0
11.446609258651733,25.0
11.44683313369751,26.0
11.447062015533447,26.0
11.447302341461182,25.0
11.447566270828247,25.0
11.447848320007324,27.0
11.448082208633423,27.0
11.448301076889038,20.0
11.448525190353394,24.0
11.44874119758606,25.0
11.448962211608887,18.0
11.449180364608765,24.0
11.449395179748535,25.0
11.449624061584473,28.0
11.4501371383667,30.0
11.450397253036499,24.0
11.45062518119812,26.0
11.450841188430786,30.0
11.451054096221924,25.0
11.451264142990112,23.0
11.45147705078125,24.0
11.45169734954834,17.0
11.451906204223633,26.0
11.452120065689087,24.0
11.452329158782959,26.0
11.452542066574097,27.0
11.452754974365234,27.0
11.452974081039429,19.0
11.45317816734314,25.0
11.453403234481812,26.0
11.453611135482788,23.0
11.453817129135132,27.0
11.454032182693481,25.0
11.454237937927246,27.0
11.454446077346802,26.0
11.454651117324829,26.0
11.455214262008667,28.0
11.45550012588501,27.0
11.455747127532959,28.0
11.455976247787476,26.0
11.45619821548462,25.0
11.456433296203613,28.0
11.456674098968506,28.0
11.4568932056427,25.0
11.457135200500488,22.0
11.457346200942993,24.0
11.457572221755981,24.0
11.457795143127441,27.0
11.458183288574219,27.0
11.458574056625366,27.0
11.458847045898438,26.0
11.459084033966064,26.0
11.459314346313477,25.0
11.45955204963684,24.0
11.459778070449829,26.0
11.460003137588501,12.0
11.460226058959961,25.0
11.46044111251831,25.0
11.460654258728027,28.0
11.460865020751953,24.0
11.461080074310303,26.0
11.461288213729858,25.0
11.461497068405151,30.0
11.461702346801758,22.0
11.461905241012573,18.0
11.462116241455078,33.0
11.462320327758789,26.0
11.462537050247192,18.0
11.462753057479858,26.0
11.462966203689575,28.0
11.463176965713501,27.0
11.463393211364746,25.0
11.463605165481567,25.0
11.46382212638855,24.0
11.464036226272583,21.0
11.464262247085571,28.0
11.464476346969604,26.0
11.464688301086426,26.0
11.465245962142944,25.0
11.465540170669556,25.0
11.465776205062866,28.0
11.466002225875854,28.0
11.46622633934021,25.0
11.466514348983765,19.0
11.466780185699463,23.0
11.46702527999878,24.0
11.467286109924316,18.0
11.467528343200684,22.0
11.467908143997192,27.0
11.468300104141235,25.0
11.468537092208862,28.0
11.468762159347534,26.0
11.468985080718994,26.0
11.469202280044556,26.0
11.46943998336792,28.0
11.46971607208252,26.0
11.469970226287842,26.0
11.470209121704102,23.0
11.470420122146606,23.0
11.470629215240479,27.0
11.470848083496094,23.0
11.471066236495972,24.0
11.471285104751587,20.0
11.471500158309937,25.0
11.471734046936035,24.0
11.471978187561035,26.0
11.472227096557617,26.0
11.472453117370605,17.0
11.472670078277588,18.0
11.472878217697144,27.0
11.473091125488281,22.0
11.473303079605103,28.0
11.47353720664978,20.0
11.473788261413574,23.0
11.47403335571289,25.0
11.474248170852661,24.0
11.474460363388062,25.0
11.474675178527832,25.0
11.475157022476196,27.0
11.475500106811523,31.0
11.47574520111084,26.0
11.475975275039673,26.0
11.476201057434082,20.0
11.476429224014282,27.0
11.476657152175903,21.0
11.47689414024353,24.0
11.477128267288208,24.0
11.477342128753662,27.0
11.477566003799438,24.0
11.477827072143555,25.0
11.478065252304077,26.0
11.47834324836731,18.0
11.47856616973877,25.0
11.47878623008728,26.0
11.479000091552734,25.0
11.479229211807251,28.0
11.479450225830078,25.0
11.479664325714111,24.0
11.479883193969727,28.0
11.480100154876709,21.0
11.480329036712646,25.0
11.480541229248047,25.0
11.48079800605774,25.0
11.481030225753784,25.0
11.481245279312134,19.0
11.481454133987427,28.0
11.481665134429932,19.0
11.481986045837402,19.0
11.482470273971558,22.0
11.482728242874146,26.0
11.4829740524292,27.0
11.483229160308838,25.0
11.483548164367676,25.0
11.48382019996643,28.0
11.484066247940063,27.0
11.484299182891846,25.0
11.48453140258789,25.0
11.484755992889404,22.0
11.484971046447754,23.0
11.485188245773315,27.0
11.485403299331665,25.0
11.485618352890015,25.0
11.485831260681152,24.0
11.486045360565186,24.0
11.486269235610962,27.0
11.486495018005371,19.0
11.486709117889404,26.0
11.486916303634644,25.0
11.487122297286987,26.0
11.487321138381958,21.0
11.487521171569824,26.0
11.487725257873535,26.0
11.487934112548828,25.0
11.488149166107178,30.0
11.488363027572632,25.0
11.488583326339722,23.0
11.488791227340698,23.0
11.489029169082642,23.0
11.489259004592896,22.0
11.489461183547974,25.0
11.489676237106323,27.0
11.489873170852661,27.0
11.490084171295166,22.0
11.49028730392456,26.0
11.490498065948486,27.0
11.490702152252197,28.0
11.490905284881592,25.0
11.491119146347046,26.0
11.491332292556763,23.0
11.491546154022217,26.0
11.491767168045044,25.0
11.49226713180542,24.0
11.492685079574585,26.0
11.49294900894165,25.0
11.493206024169922,24.0
11.493434190750122,24.0
11.493662118911743,33.0
11.493885278701782,25.0
11.494103193283081,25.0
11.494340181350708,24.0
11.494554281234741,24.0
11.494774103164673,17.0
11.494988203048706,25.0
11.495206356048584,28.0
11.495421171188354,27.0
11.495633363723755,25.0
11.495843172073364,28.0
11.496057271957397,26.0
11.496269226074219,20.0
11.496482133865356,24.0
11.496691226959229,24.0
11.49690318107605,25.0
11.497114181518555,29.0
11.497326135635376,28.0
11.497545003890991,26.0
11.497759103775024,25.0
11.49798035621643,23.0
11.498204231262207,23.0
11.49841833114624,25.0
11.498629331588745,25.0
11.498849153518677,19.0
11.499109268188477,25.0
11.499353170394897,26.0
11.49960708618164,26.0
11.500194072723389,29.0
11.500482082366943,25.0
11.50071930885315,24.0
11.500944137573242,16.0
11.50116515159607,22.0
11.501386165618896,28.0
11.501613140106201,21.0
11.501831293106079,27.0
11.502278327941895,23.0
11.50257921218872,19.0
11.50281023979187,25.0
11.503030061721802,21.0
11.503282308578491,30.0
11.503498077392578,25.0
11.503716230392456,24.0
11.503932237625122,19.0
11.504154205322266,27.0
11.504370212554932,28.0
11.504590272903442,24.0
11.504807233810425,25.0
11.505022048950195,24.0
11.505245208740234,26.0
11.505487203598022,25.0
11.505705118179321,26.0
11.505918979644775,24.0
11.506149291992188,30.0
11.506400108337402,28.0
11.506612062454224,26.0
11.506824970245361,28.0
11.507038116455078,24.0
11.507298231124878,26.0
11.507538318634033,25.0
11.507820129394531,25.0
11.508080244064331,23.0
11.508593320846558,24.0
11.509095191955566,22.0
11.509351253509521,25.0
11.509580135345459,19.0
11.509813070297241,25.0
11.510035991668701,26.0
11.510254144668579,25.0
11.510473012924194,22.0
11.510691165924072,26.0
11.510902166366577,26.0
11.511117219924927,25.0
11.51133108139038,26.0
11.511547327041626,27.0
11.511760234832764,25.0
11.511972188949585,24.0
11.512272119522095,23.0
11.512818336486816,25.0
11.513079166412354,25.0
11.513313055038452,23.0
11.513535976409912,21.0
11.513759136199951,26.0
11.513991355895996,27.0
11.514222145080566,29.0
11.514437198638916,25.0
11.514660120010376,30.0
11.514881134033203,24.0
11.515168190002441,27.0
11.515427112579346,22.0
11.51569938659668,24.0
11.515925168991089,27.0
11.516146183013916,25.0
11.516392946243286,19.0
11.51662802696228,27.0
11.516842126846313,25.0
11.517055988311768,25.0
11.5172700881958,26.0
11.517482995986938,28.0
11.517702341079712,24.0
11.51791524887085,28.0
11.518257141113281,18.0
11.518524169921875,27.0
11.518769264221191,28.0
11.519021034240723,24.0
11.519251108169556,30.0
11.519485235214233,27.0
11.519711017608643,28.0
11.519933223724365,25.0
11.520148038864136,28.0
11.520368337631226,27.0
11.520578145980835,26.0
11.520790100097656,29.0
11.521001100540161,24.0
11.521219253540039,27.0
11.52143120765686,26.0
11.521653175354004,23.0
11.522186040878296,27.0
11.522533178329468,24.0
11.522838115692139,27.0
11.52311396598816,27.0
11.523405075073242,24.0
11.523630142211914,25.0
11.523848295211792,28.0
11.524071216583252,26.0
11.52428913116455,26.0
11.524515151977539,25.0
11.52492904663086,26.0
11.52517318725586,24.0
11.525392293930054,25.0
11.525609016418457,26.0
11.525828123092651,25.0
11.52604603767395,24.0
11.526262044906616,23.0
11.52648115158081,24.0
11.526702165603638,28.0
11.526924133300781,28.0
11.527147054672241,30.0
11.527368307113647,28.0
11.527591228485107,28.0
11.52780818939209,29.0
11.528024196624756,27.0
11.52823805809021,20.0
11.528456211090088,28.0
11.528671979904175,27.0
11.52888822555542,22.0
11.529102087020874,27.0
11.529311180114746,26.0
11.529521226882935,25.0
11.52974534034729,26.0
11.529957294464111,24.0
11.530177116394043,28.0
11.530397176742554,25.0
11.530609130859375,28.0
11.530815124511719,27.0
11.531020164489746,25.0
11.531227350234985,28.0
11.531435012817383,25.0
11.53164529800415,26.0
11.531853199005127,25.0
11.532194137573242,27.0
11.53264307975769,26.0
11.532873153686523,27.0
11.533103227615356,19.0
11.533323049545288,30.0
11.533541202545166,26.0
11.533764123916626,26.0
11.533980369567871,24.0
11.534205198287964,26.0
11.534439325332642,31.0
11.534656047821045,24.0
11.534876346588135,24.0
11.535081148147583,30.0
11.535280227661133,29.0
11.53548812866211,27.0
11.535712003707886,26.0
11.535922288894653,27.0
11.536120176315308,27.0
11.536323070526123,26.0
11.536524057388306,26.0
11.536734104156494,26.0
11.53693413734436,26.0
11.53716516494751,28.0
11.53737497329712,24.0
11.537578105926514,26.0
11.537788152694702,27.0
11.537996053695679,28.0
11.53822636604309,24.0
11.538440942764282,27.0
11.538647174835205,25.0
11.538844347000122,11.0
11.53905725479126,30.0
11.539255142211914,25.0
11.539451122283936,23.0
11.539648056030273,26.0
11.539848327636719,25.0
11.540048122406006,25.0
11.540253162384033,25.0
11.54047417640686,27.0
11.54068922996521,25.0
11.540887117385864,21.0
11.541089057922363,27.0
11.54128623008728,27.0
11.54150128364563,26.0
11.541710138320923,27.0
11.54192328453064,25.0
11.542404174804688,22.0
11.54276418685913,26.0
11.543127059936523,28.0
11.543389320373535,29.0
11.5436270236969,27.0
11.543851137161255,26.0
11.544067144393921,25.0
11.54428219795227,27.0
11.544527292251587,27.0
11.544807195663452,30.0
11.545042991638184,28.0
11.5452721118927,22.0
11.545489311218262,26.0
11.545704364776611,26.0
11.545921087265015,29.0
11.54613208770752,28.0
11.546341180801392,25.0
11.546550035476685,22.0
11.546767234802246,27.0
11.546976089477539,26.0
11.547186374664307,24.0
11.54740309715271,27.0
11.54762315750122,28.0
11.547844171524048,28.0
11.54806399345398,28.0
11.548270225524902,29.0
11.54849910736084,24.0
11.548726081848145,24.0
11.548953294754028,25.0
11.549172163009644,29.0
11.549385070800781,29.0
11.549593210220337,25.0
11.549936294555664,28.0
11.550169229507446,29.0
11.550386190414429,28.0
11.550599336624146,25.0
11.550812244415283,20.0
11.551027297973633,28.0
11.551250219345093,29.0
11.55146598815918,27.0
11.551677942276001,27.0
11.551896095275879,26.0
11.552133321762085,28.0
11.552357196807861,29.0
11.552557229995728,29.0
11.552753210067749,27.0
11.552951097488403,27.0
11.55314826965332,28.0
11.553346157073975,28.0
11.553543329238892,27.0
11.553749084472656,25.0
11.553954124450684,29.0
11.554152965545654,29.0
11.554360151290894,27.0
11.554558992385864,23.0
11.554756164550781,28.0
11.554954051971436,25.0
11.555151224136353,26.0
11.55535626411438,23.0
11.555553197860718,26.0
11.555761337280273,28.0
11.555966138839722,27.0
11.556169986724854,28.0
11.556370258331299,25.0
11.556589126586914,25.0
11.556804180145264,26.0
11.557003021240234,27.0
11.557217121124268,27.0
11.557423114776611,27.0
11.557635068893433,26.0
11.557838201522827,27.0
11.558035135269165,31.0
11.55823802947998,19.0
11.558441162109375,29.0
11.55865216255188,24.0
11.558865308761597,26.0
11.559091329574585,26.0
11.5593101978302,27.0
11.559539318084717,21.0
11.55976414680481,27.0
11.559977054595947,26.0
11.560187339782715,30.0
11.560394048690796,25.0
11.560595989227295,26.0
11.560807228088379,26.0
11.56102705001831,24.0
11.56123423576355,19.0
11.561446189880371,29.0
11.561653137207031,25.0
11.561853170394897,29.0
11.562057971954346,26.0
11.562698125839233,31.0
11.562978029251099,26.0
11.563223123550415,26.0
11.563469171524048,28.0
11.563698291778564,29.0
11.563914060592651,26.0
11.564128160476685,24.0
11.564345121383667,28.0
11.564558267593384,25.0
11.564768075942993,26.0
11.564976215362549,29.0
11.565191268920898,29.0
11.56541109085083,25.0
11.565622091293335,30.0
11.56583309173584,27.0
11.566043138504028,19.0
11.566267251968384,26.0
11.566522121429443,25.0
11.56674313545227,27.0
11.566964149475098,31.0
11.567188024520874,27.0
11.567414045333862,28.0
11.567633152008057,26.0
11.567858219146729,27.0
11.568378210067749,30.0
11.568648338317871,27.0
11.568870306015015,28.0
11.569080114364624,27.0
11.56928825378418,28.0
11.569554328918457,26.0
11.569778203964233,28.0
11.56999397277832,26.0
11.57020115852356,26.0
11.57040524482727,27.0
11.570614099502563,24.0
11.570828199386597,27.0
11.57103419303894,27.0
11.571256160736084,27.0
11.571469068527222,31.0
11.57169222831726,27.0
11.571906089782715,25.0
11.572121143341064,28.0
11.572517156600952,28.0
11.57277536392212,30.0
11.572996139526367,27.0
11.573235988616943,28.0
11.573451042175293,25.0
11.573673009872437,27.0
11.573889017105103,30.0
11.574126243591309,26.0
11.57436227798462,28.0
11.574584245681763,30.0
11.574807167053223,26.0
11.575024127960205,26.0
11.575247287750244,23.0
11.575478076934814,28.0
11.575700044631958,25.0
11.575923204421997,24.0
11.57634425163269,29.0
11.576666116714478,27.0
11.57688021659851,25.0
11.577106952667236,30.0
11.577331304550171,28.0
11.577532291412354,28.0
11.577741146087646,27.0
11.577959299087524,26.0
11.578171253204346,28.0
11.578383207321167,28.0
11.578591108322144,26.0
11.578814029693604,29.0
11.57903003692627,25.0
11.579265117645264,26.0
11.579479217529297,26.0
11.579691171646118,26.0
11.579897165298462,29.0
11.580098152160645,28.0
11.580296993255615,27.0
11.580513000488281,25.0
11.580710172653198,28.0
11.580920219421387,30.0
11.581132173538208,28.0
11.581356048583984,21.0
11.581559181213379,28.0
11.581772089004517,30.0
11.581991195678711,25.0
11.582249164581299,26.0
11.582579374313354,27.0
11.582820177078247,24.0
11.583039999008179,19.0
11.583253145217896,27.0
11.583473205566406,29.0
11.58369517326355,28.0
11.583925008773804,27.0
11.584192037582397,25.0
11.584534168243408,31.0
11.584792137145996,26.0
11.585031270980835,24.0
11.585278987884521,28.0
11.585500240325928,28.0
11.585721254348755,21.0
11.585938930511475,24.0
11.58616018295288,24.0
11.58637809753418,30.0
11.586605072021484,25.0
11.586826086044312,26.0
11.587048292160034,22.0
11.587269306182861,26.0
11.587500095367432,27.0
11.587717294692993,30.0
11.58793020248413,29.0
11.588160037994385,27.0
11.588370323181152,27.0
11.58858323097229,26.0
11.588794231414795,28.0
11.58901309967041,25.0
11.589239120483398,28.0
11.58944821357727,24.0
11.589668273925781,27.0
11.589885234832764,27.0
11.590096235275269,29.0
11.59032416343689,31.0
11.590540170669556,22.0
11.5907621383667,27.0
11.590993165969849,21.0
11.591207265853882,26.0
11.591430187225342,25.0
11.591641187667847,23.0
11.591853141784668,30.0
11.592075109481812,27.0
11.592302083969116,29.0
11.592520952224731,28.0
11.592746019363403,20.0
11.592977285385132,27.0
11.593196153640747,28.0
11.593416213989258,30.0
11.593639373779297,26.0
11.593855142593384,25.0
11.594069004058838,29.0
11.594298124313354,28.0
11.594518184661865,27.0
11.594739198684692,27.0
11.594957113265991,29.0
11.595168113708496,26.0
11.595384120941162,28.0
11.595592975616455,29.0
11.595800161361694,29.0
11.596026182174683,30.0
11.59625506401062,27.0
11.59646725654602,28.0
11.596680402755737,20.0
11.59688925743103,28.0
11.59709906578064,27.0
11.597306251525879,29.0
11.597514152526855,31.0
11.59772539138794,27.0
11.597951173782349,27.0
11.598157167434692,27.0
11.598366022109985,29.0
11.598572015762329,27.0
11.59877610206604,27.0
11.598992109298706,27.0
11.599197387695312,30.0
11.599409341812134,30.0
11.599628210067749,27.0
11.599877119064331,25.0
11.600094079971313,24.0
11.600306272506714,23.0
11.600524187088013,28.0
11.600747108459473,27.0
11.600977182388306,22.0
11.601210117340088,26.0
11.601428985595703,26.0
11.60165810585022,29.0
11.601879119873047,26.0
11.602097272872925,28.0
11.60232400894165,28.0
11.602543115615845,28.0
11.602763175964355,31.0
11.602972269058228,27.0
11.603196144104004,26.0
11.60341215133667,26.0
11.603636026382446,25.0
11.603860139846802,28.0
11.604067087173462,27.0
11.604287147521973,29.0
11.604513168334961,26.0
11.604730129241943,25.0
11.604953289031982,20.0
11.605165243148804,27.0
11.605384349822998,29.0
11.605603218078613,29.0
11.60582709312439,28.0
11.606033325195312,31.0
11.606260061264038,28.0
11.606475114822388,30.0
11.606689214706421,21.0
11.606905221939087,29.0
11.607123136520386,26.0
11.607338190078735,29.0
11.607560396194458,27.0
11.607783317565918,29.0
11.60800313949585,28.0
11.608659029006958,27.0
11.60903024673462,30.0
11.609280109405518,27.0
11.609516143798828,28.0
11.609796285629272,27.0
11.610314130783081,26.0
11.610565185546875,28.0
11.610796213150024,28.0
11.611032247543335,27.0
11.611268281936646,29.0
11.61149525642395,31.0
11.611723184585571,28.0
11.61194920539856,25.0
11.612166166305542,28.0
11.612381935119629,28.0
11.612609148025513,30.0
11.612828254699707,30.0
11.613041162490845,29.0
11.613247156143188,28.0
11.613454103469849,25.0
11.613662004470825,27.0
11.613868236541748,27.0
11.614078044891357,27.0
11.614299297332764,27.0
11.61452317237854,30.0
11.614740133285522,27.0
11.614957094192505,29.0
11.61518907546997,27.0
11.615418195724487,20.0
11.615639209747314,25.0
11.615856170654297,28.0
11.616077184677124,28.0
11.616283178329468,28.0
11.616526126861572,29.0
11.616742134094238,29.0
11.61697006225586,28.0
11.617188215255737,29.0
11.617428064346313,27.0
11.617656230926514,27.0
11.617906332015991,30.0
11.618139266967773,27.0
11.618409156799316,28.0
11.618648052215576,29.0
11.618869066238403,36.0
11.61909818649292,29.0
11.619328022003174,29.0
11.619555234909058,29.0
11.619781255722046,28.0
11.620007276535034,29.0
11.620236158370972,27.0
11.620472192764282,27.0
11.620694160461426,32.0
11.62092900276184,28.0
11.621160984039307,27.0
11.621397018432617,27.0
11.621616125106812,32.0
11.621838092803955,27.0
11.62207317352295,25.0
11.62229609489441,29.0
11.622518062591553,28.0
11.622744083404541,30.0
11.622971296310425,30.0
11.62319803237915,21.0
11.6234450340271,30.0
11.623675346374512,30.0
11.623906135559082,27.0
11.624128103256226,29.0
11.62434720993042,29.0
11.62490439414978,27.0
11.625179290771484,28.0
11.625408172607422,28.0
11.625640392303467,29.0
11.625872135162354,31.0
11.626096248626709,30.0
11.626320123672485,29.0
11.626543283462524,29.0
11.626764059066772,29.0
11.626996994018555,30.0
11.627225160598755,29.0
11.627443313598633,28.0
11.62766695022583,27.0
11.62788200378418,28.0
11.628096103668213,29.0
11.628633260726929,29.0
11.628881216049194,28.0
11.629114151000977,26.0
11.62934136390686,27.0
11.629578113555908,27.0
11.629804134368896,26.0
11.630028009414673,28.0
11.630267143249512,27.0
11.630498170852661,29.0
11.630736112594604,28.0
11.630963325500488,30.0
11.631324291229248,27.0
11.631623268127441,27.0
11.631854057312012,28.0
11.63207721710205,28.0
11.632297039031982,32.0
11.632519245147705,28.0
11.632737159729004,25.0
11.632954120635986,29.0
11.63317608833313,27.0
11.633402109146118,30.0
11.633625268936157,27.0
11.633845090866089,29.0
11.634069204330444,22.0
11.634292125701904,29.0
11.634604215621948,28.0
11.634887218475342,28.0
11.63512134552002,29.0
11.635350227355957,26.0
11.635571241378784,26.0
11.635781288146973,27.0
11.636001110076904,30.0
11.636210203170776,29.0
11.636423349380493,30.0
11.63663625717163,33.0
11.636848211288452,29.0
11.63705825805664,33.0
11.637270212173462,29.0
11.637487173080444,30.0
11.6377112865448,23.0
11.637941122055054,30.0
11.638180255889893,27.0
11.638386249542236,27.0
11.638603210449219,30.0
11.638819217681885,31.0
11.639034271240234,25.0
11.639238357543945,27.0
11.639454126358032,27.0
11.639661073684692,29.0
11.639869928359985,29.0
11.640099048614502,30.0
11.640307188034058,31.0
11.64052414894104,31.0
11.640743255615234,28.0
11.640965223312378,24.0
11.641188144683838,30.0
11.641406059265137,28.0
11.641632080078125,27.0
11.64185619354248,27.0
11.642072200775146,22.0
11.642295122146606,26.0
11.642512321472168,25.0
11.642728328704834,28.0
11.642941951751709,28.0
11.643148183822632,30.0
11.643345355987549,29.0
11.643567085266113,29.0
11.643781185150146,29.0
11.643993139266968,28.0
11.644208192825317,22.0
11.64459228515625,31.0
11.64516019821167,27.0
11.645430088043213,29.0
11.645663976669312,31.0
11.645977258682251,28.0
11.646230220794678,29.0
11.646461248397827,26.0
11.646687030792236,21.0
11.646907329559326,29.0
11.647125005722046,27.0
11.64736533164978,28.0
11.647577285766602,30.0
11.647794246673584,30.0
11.64801836013794,21.0
11.648242235183716,31.0
11.648452281951904,27.0
11.64867115020752,32.0
11.64888620376587,31.0
11.649112224578857,29.0
11.649331331253052,28.0
11.649546146392822,34.0
11.649760007858276,30.0
11.649978160858154,29.0
11.650196075439453,24.0
11.650416135787964,31.0
11.650644063949585,30.0
11.650862216949463,30.0
11.651090383529663,29.0
11.651394128799438,24.0
11.65189814567566,32.0
11.652137994766235,29.0
11.652358293533325,29.0
11.652588129043579,29.0
11.652796268463135,28.0
11.653004169464111,33.0
11.65323519706726,29.0
11.65345311164856,28.0
11.653678178787231,32.0
11.653899192810059,31.0
11.654109239578247,30.0
11.654328107833862,26.0
11.654635190963745,31.0
11.654924154281616,29.0
11.655163288116455,29.0
11.655376195907593,33.0
11.65559720993042,31.0
11.65583324432373,30.0
11.656057119369507,32.0
11.65628695487976,31.0
11.656505107879639,28.0
11.656723976135254,28.0
11.656938076019287,30.0
11.657148361206055,30.0
11.657364130020142,28.0
11.657575368881226,31.0
11.657785177230835,32.0
11.658025026321411,30.0
11.658344268798828,26.0
11.658596277236938,30.0
11.658836126327515,31.0
11.659069299697876,28.0
11.659375190734863,33.0
11.659846305847168,35.0
11.660099267959595,30.0
11.660331010818481,22.0
11.660551309585571,31.0
11.660771131515503,29.0
11.660986185073853,28.0
11.661202192306519,30.0
11.66142225265503,32.0
11.661636114120483,31.0
11.661848068237305,20.0
11.662061214447021,31.0
11.66227412223816,30.0
11.662487030029297,24.0
11.662700176239014,33.0
11.662913084030151,29.0
11.663127183914185,29.0
11.663340091705322,36.0
11.663551092147827,31.0
11.663766145706177,32.0
11.663978099822998,30.0
11.664191007614136,30.0
11.664405107498169,24.0
11.664881229400635,31.0
11.66522216796875,30.0
11.665462017059326,28.0
11.665685176849365,33.0
11.665906190872192,31.0
11.666125059127808,31.0
11.666344404220581,24.0
11.666558980941772,32.0
11.666783094406128,30.0
11.66700005531311,30.0
11.667214155197144,30.0
11.667431354522705,30.0
11.667652130126953,30.0
11.667866230010986,32.0
11.668199300765991,28.0
11.668478965759277,28.0
11.66872501373291,23.0
11.668955326080322,32.0
11.669186115264893,31.0
11.669405221939087,27.0
11.669631004333496,30.0
11.669857025146484,31.0
11.67007327079773,29.0
11.670289278030396,29.0
11.670504331588745,28.0
11.670719146728516,33.0
11.670936107635498,31.0
11.671152114868164,29.0
11.671375274658203,31.0
11.671590328216553,32.0
11.671808004379272,28.0
11.672019958496094,32.0
11.672234058380127,33.0
11.67246413230896,31.0
11.672686100006104,31.0
11.672902345657349,30.0
11.673118114471436,30.0
11.673354148864746,29.0
11.67358112335205,27.0
11.673800945281982,32.0
11.6740140914917,28.0
11.674227952957153,31.0
11.674450159072876,31.0
11.674797058105469,34.0
11.675280332565308,28.0
11.67553424835205,29.0
11.675765037536621,28.0
11.675987958908081,29.0
11.6762113571167,31.0
11.676434993743896,29.0
11.676659345626831,31.0
11.676872968673706,33.0
11.677085161209106,22.0
11.67729926109314,24.0
11.677517175674438,28.0
11.677732229232788,29.0
11.677951097488403,28.0
11.678165197372437,29.0
11.678376197814941,29.0
11.678592205047607,33.0
11.678808212280273,27.0
11.679022073745728,30.0
11.679234027862549,23.0
11.679460287094116,32.0
11.679676294326782,28.0
11.679888248443604,28.0
11.680104970932007,29.0
11.680313110351562,31.0
11.680524110794067,30.0
11.680735111236572,31.0
11.68094801902771,24.0
11.681165218353271,30.0
11.681379079818726,30.0
11.681592226028442,30.0
11.681802988052368,32.0
11.682015180587769,24.0
11.682228088378906,28.0
11.68243932723999,31.0
11.6826491355896,27.0
11.682859182357788,30.0
11.683069944381714,35.0
11.683286190032959,30.0
11.683496236801147,28.0
11.683708190917969,30.0
11.68392300605774,31.0
11.684142112731934,23.0
11.684352159500122,28.0
11.684568166732788,28.0
11.685086965560913,33.0
11.685452222824097,27.0
11.685720205307007,30.0
11.685985088348389,29.0
11.686222076416016,31.0
11.686442136764526,30.0
11.686663150787354,30.0
11.686877250671387,32.0
11.687087297439575,24.0
11.687302350997925,29.0
11.687509059906006,30.0
11.687721014022827,28.0
11.687934160232544,32.0
11.68815803527832,31.0
11.688382148742676,30.0
11.688608169555664,31.0
11.688835144042969,30.0
11.689054012298584,31.0
11.689293146133423,31.0
11.689505100250244,30.0
11.689716100692749,29.0
11.68992829322815,30.0
11.690144062042236,30.0
11.69036602973938,31.0
11.690583229064941,29.0
11.690802335739136,30.0
11.69101619720459,32.0
11.691233158111572,24.0
11.691498041152954,30.0
11.691728115081787,31.0
11.69194221496582,28.0
11.692166328430176,31.0
11.692383050918579,24.0
11.692597150802612,32.0
11.692812204360962,31.0
11.693032264709473,28.0
11.693259000778198,25.0
11.69347620010376,33.0
11.693713188171387,31.0
11.69392728805542,33.0
11.694153070449829,32.0
11.694372177124023,28.0
11.694587230682373,31.0
11.694802284240723,29.0
11.695028066635132,23.0
11.695269107818604,33.0
11.695496320724487,31.0
11.695717096328735,28.0
11.695943355560303,28.0
11.696162223815918,33.0
11.696392297744751,33.0
11.696614265441895,30.0
11.69684100151062,31.0
11.69705605506897,31.0
11.697290182113647,31.0
11.697504043579102,31.0
11.697719097137451,31.0
11.697944164276123,31.0
11.698161363601685,33.0
11.698382139205933,29.0
11.698596239089966,26.0
11.698805093765259,33.0
11.69902515411377,30.0
11.699271202087402,28.0
11.699493169784546,32.0
11.699815273284912,31.0
11.700096130371094,31.0
11.700352191925049,26.0
11.700587034225464,32.0
11.700813055038452,32.0
11.701040267944336,32.0
11.701263189315796,26.0
11.701492071151733,32.0
11.70171332359314,33.0
11.70192837715149,28.0
11.70216417312622,32.0
11.702388048171997,31.0
11.70259714126587,31.0
11.702805042266846,30.0
11.703015327453613,29.0
11.703227281570435,31.0
11.70343828201294,32.0
11.703654289245605,32.0
11.703862190246582,31.0
11.704072952270508,31.0
11.704280138015747,25.0
11.70449423789978,31.0
11.704718112945557,29.0
11.704936265945435,29.0
11.705148220062256,32.0
11.705368041992188,31.0
11.705578088760376,36.0
11.705790996551514,31.0
11.706006050109863,23.0
11.706223249435425,30.0
11.706453084945679,32.0
11.706680059432983,30.0
11.706889152526855,29.0
11.707102060317993,31.0
11.707320213317871,34.0
11.707534074783325,31.0
11.707765102386475,30.0
11.707996368408203,28.0
11.708235025405884,32.0
11.708456993103027,32.0
11.708675146102905,32.0
11.708898067474365,34.0
11.709118127822876,29.0
11.709342956542969,32.0
11.709699153900146,31.0
11.70995831489563,29.0
11.710201263427734,35.0
11.710422039031982,33.0
11.710641145706177,31.0
11.710861206054688,30.0
11.711077213287354,31.0
11.711296081542969,32.0
11.71151328086853,33.0
11.711750268936157,32.0
11.711962223052979,31.0
11.712176322937012,23.0
11.712392330169678,29.0
11.71260118484497,35.0
11.712810039520264,31.0
11.713032960891724,32.0
11.713252305984497,30.0
11.713463068008423,34.0
11.71367621421814,13.0
11.713886976242065,32.0
11.714102029800415,29.0
11.714317083358765,33.0
11.714525938034058,33.0
11.714742183685303,37.0
11.714962244033813,32.0
11.715177059173584,30.0
11.715395212173462,32.0
11.715610265731812,30.0
11.715832233428955,32.0
11.716050386428833,30.0
11.716271162033081,30.0
11.716495275497437,20.0
11.716712951660156,34.0
11.716928005218506,30.0
11.71714735031128,30.0
11.717360258102417,23.0
11.71757698059082,30.0
11.717794179916382,26.0
11.718009233474731,32.0
11.71821904182434,30.0
11.718433141708374,32.0
11.718654155731201,31.0
11.71886420249939,32.0
11.719073057174683,31.0
11.719282388687134,32.0
11.719496965408325,32.0
11.719735145568848,30.0
11.719953298568726,31.0
11.720163106918335,31.0
11.720370292663574,28.0
11.720581293106079,32.0
11.72078800201416,31.0
11.721042156219482,30.0
11.721254348754883,33.0
11.721464157104492,24.0
11.721673965454102,29.0
11.72188425064087,34.0
11.722100973129272,34.0
11.722310304641724,30.0
11.722516059875488,30.0
11.722724199295044,29.0
11.722930192947388,21.0
11.72313404083252,34.0
11.723346948623657,31.0
11.723557233810425,35.0
11.723777055740356,31.0
11.723988056182861,30.0
11.7241952419281,32.0
11.724404096603394,32.0
11.72462010383606,30.0
11.724860191345215,31.0
11.72507905960083,28.0
11.725290060043335,33.0
11.72550916671753,28.0
11.725728034973145,32.0
11.725947141647339,23.0
11.726164102554321,30.0
11.726385354995728,31.0
11.726611137390137,30.0
11.72683334350586,33.0
11.727041006088257,30.0
11.727250337600708,29.0
11.727463245391846,31.0
11.727677345275879,32.0
11.727895021438599,34.0
11.728103160858154,35.0
11.72831106185913,34.0
11.72851824760437,31.0
11.728727102279663,32.0
11.728933334350586,29.0
11.729143142700195,36.0
11.729351282119751,25.0
11.729559183120728,34.0
11.7297682762146,31.0
11.72997522354126,31.0
11.730184316635132,30.0
11.730391025543213,33.0
11.730605125427246,30.0
11.730817079544067,27.0
11.731028079986572,30.0
11.73123812675476,30.0
11.731443405151367,31.0
11.73164701461792,31.0
11.731858253479004,29.0
11.732069253921509,26.0
11.732279062271118,34.0
11.732487201690674,33.0
11.73269510269165,24.0
11.732906103134155,32.0
11.733115196228027,25.0
11.733333110809326,31.0
11.733546018600464,32.0
11.73376202583313,31.0
11.733978271484375,31.0
11.734198093414307,30.0
11.734421014785767,23.0
11.734634160995483,30.0
11.73486328125,30.0
11.735089302062988,29.0
11.73530912399292,33.0
11.735528230667114,33.0
11.735738277435303,28.0
11.735947132110596,32.0
11.736160039901733,35.0
11.736375093460083,34.0
11.736583232879639,30.0
11.736791133880615,29.0
11.737003087997437,33.0
11.737211227416992,24.0
11.737421035766602,28.0
11.737632036209106,31.0
11.737837076187134,30.0
11.738044261932373,32.0
11.738253116607666,31.0
11.738461256027222,33.0
11.738667011260986,22.0
11.738872051239014,33.0
11.739084243774414,32.0
11.739291191101074,32.0
11.739496946334839,30.0
11.739713191986084,33.0
11.739920139312744,33.0
11.74012804031372,31.0
11.740337133407593,31.0
11.740547180175781,32.0
11.740756034851074,33.0
11.740962028503418,36.0
11.741170167922974,33.0
11.741381168365479,33.0
11.741595268249512,30.0
11.741815090179443,33.0
11.742032289505005,30.0
11.742252111434937,29.0
11.742472171783447,32.0
11.742686986923218,30.0
11.742918252944946,31.0
11.743139266967773,32.0
11.743354320526123,31.0
11.743569135665894,30.0
11.743789196014404,32.0
11.743999004364014,32.0
11.744210243225098,32.0
11.744420289993286,29.0
11.74463415145874,29.0
11.744848251342773,29.0
11.745062351226807,33.0
11.745272159576416,32.0
11.745481014251709,24.0
11.745690107345581,29.0
11.745902061462402,29.0
11.74611210823059,30.0
11.746320247650146,35.0
11.746532201766968,28.0
11.746746301651001,31.0
11.746952295303345,33.0
11.74715805053711,33.0
11.747366189956665,24.0
11.74757194519043,34.0
11.74777603149414,31.0
11.747987985610962,30.0
11.748201131820679,34.0
11.748425006866455,33.0
11.748629093170166,30.0
11.748834133148193,31.0
11.74903917312622,25.0
11.749245166778564,31.0
11.749451160430908,24.0
11.749656200408936,32.0
11.749869108200073,32.0
11.750081062316895,30.0
11.750294208526611,33.0
11.750510215759277,32.0
11.750724077224731,32.0
11.750937223434448,35.0
11.751145124435425,32.0
11.751360177993774,30.0
11.7515709400177,30.0
11.75178337097168,32.0
11.751994132995605,32.0
11.752202987670898,33.0
11.752410173416138,31.0
11.75261640548706,30.0
11.752825260162354,33.0
11.753032207489014,33.0
11.753241300582886,34.0
11.75344729423523,33.0
11.753664016723633,34.0
11.7538743019104,32.0
11.754079103469849,27.0
11.754285097122192,30.0
11.75449013710022,33.0
11.754695177078247,33.0
11.75490427017212,29.0
11.75511121749878,31.0
11.755316972732544,33.0
11.755524158477783,29.0
11.755730152130127,30.0
11.755939245223999,32.0
11.756145238876343,31.0
11.756357192993164,28.0
11.756562232971191,32.0
11.756773233413696,31.0
11.756983041763306,34.0
11.75719404220581,32.0
11.75740909576416,26.0
11.757623195648193,30.0
11.757834196090698,30.0
11.75804615020752,33.0
11.758287191390991,33.0
11.758496046066284,32.0
11.758709192276001,29.0
11.758921146392822,34.0
11.759137153625488,35.0
11.759356260299683,32.0
11.759568214416504,29.0
11.759779214859009,34.0
11.759985208511353,32.0
11.760196208953857,28.0
11.760407209396362,34.0
11.760617017745972,31.0
11.76082730293274,33.0
11.76103925704956,33.0
11.761253118515015,33.0
11.761553287506104,31.0
11.761832237243652,33.0
11.762076139450073,36.0
11.762293100357056,34.0
11.7625150680542,25.0
11.762728214263916,29.0
11.762945175170898,28.0
11.763159036636353,28.0
11.763384103775024,34.0
11.763598203659058,32.0
11.763814210891724,32.0
11.764026165008545,33.0
11.764238119125366,31.0
11.764455318450928,28.0
11.764662027359009,31.0
11.764870166778564,27.0
11.765077114105225,25.0
11.765294075012207,33.0
11.765501976013184,28.0
11.765711307525635,32.0
11.765925168991089,30.0
11.766131401062012,35.0
11.766338109970093,30.0
11.76654314994812,34.0
11.766754150390625,31.0
11.766967058181763,30.0
11.767178058624268,33.0
11.767388343811035,30.0
11.767604112625122,32.0
11.767819166183472,31.0
11.76803207397461,30.0
11.768249273300171,36.0
11.768460035324097,29.0
11.768668174743652,24.0
11.768887042999268,31.0
11.769438028335571,30.0
11.769718170166016,35.0
11.769960403442383,31.0
11.770171165466309,31.0
11.770379066467285,31.0
11.770585298538208,29.0
11.770798206329346,32.0
11.771002292633057,33.0
11.771207332611084,31.0
11.771457195281982,24.0
11.771745204925537,32.0
11.771964311599731,35.0
11.772175312042236,30.0
11.772391319274902,30.0
11.772603273391724,34.0
11.772825241088867,33.0
11.773041248321533,23.0
11.773251056671143,38.0
11.773456335067749,31.0
11.773661375045776,31.0
11.773871183395386,32.0
11.774081230163574,31.0
11.774287223815918,34.0
11.774493217468262,38.0
11.774702072143555,32.0
11.774912118911743,36.0
11.77512502670288,36.0
11.775338172912598,31.0
11.77555513381958,32.0
11.775779247283936,36.0
11.775996208190918,32.0
11.776210308074951,35.0
11.776424169540405,34.0
11.776644229888916,29.0
11.77698016166687,36.0
11.777435302734375,30.0
11.777674198150635,34.0
11.77790117263794,35.0
11.778125047683716,32.0
11.778350114822388,36.0
11.778561115264893,32.0
11.778777122497559,32.0
11.778985977172852,31.0
11.779195308685303,33.0
11.779399156570435,32.0
11.77961015701294,35.0
11.779811143875122,27.0
11.780022144317627,32.0
11.780317306518555,35.0
11.780795335769653,26.0
11.781046152114868,32.0
11.78129529953003,30.0
11.78153920173645,31.0
11.78176999092102,33.0
11.781995058059692,25.0
11.782222270965576,33.0
11.782440185546875,29.0
11.78265118598938,33.0
11.782868146896362,34.0
11.783087253570557,34.0
11.783316135406494,27.0
11.783539295196533,32.0
11.783761262893677,28.0
11.783985137939453,29.0
11.78420114517212,31.0
11.784414052963257,34.0
11.784630060195923,25.0
11.784842014312744,33.0
11.78506326675415,32.0
11.785283088684082,32.0
11.785497188568115,34.0
11.785704374313354,31.0
11.785927295684814,31.0
11.786141395568848,30.0
11.786364316940308,31.0
11.786577224731445,33.0
11.786805152893066,32.0
11.787026166915894,30.0
11.787251949310303,36.0
11.787466049194336,28.0
11.787687301635742,25.0
11.787901163101196,30.0
11.788125276565552,31.0
11.788364171981812,40.0
11.788573265075684,36.0
11.788784265518188,33.0
11.788993120193481,32.0
11.789207220077515,34.0
11.78941011428833,34.0
11.789624214172363,27.0
11.789851188659668,33.0
11.790058135986328,34.0
11.790276288986206,34.0
11.790485143661499,34.0
11.79069209098816,32.0
11.79090404510498,32.0
11.791117191314697,34.0
11.79133415222168,31.0
11.79155421257019,32.0
11.791774988174438,35.0
11.791991233825684,32.0
11.792210340499878,32.0
11.79243016242981,29.0
11.79264211654663,29.0
11.792896032333374,26.0
11.793107986450195,31.0
11.793318271636963,33.0
11.793530225753784,32.0
11.793739080429077,33.0
11.793950080871582,36.0
11.794164180755615,33.0
11.794373273849487,33.0
11.79458212852478,35.0
11.794803380966187,36.0
11.795014142990112,34.0
11.795236110687256,34.0
11.795445203781128,33.0
11.795654296875,32.0
11.795862197875977,32.0
11.796083211898804,30.0
11.79630422592163,33.0
11.796534061431885,32.0
11.79675817489624,35.0
11.796978235244751,35.0
11.797202348709106,33.0
11.797423124313354,33.0
11.797643184661865,33.0
11.797859191894531,29.0
11.798079013824463,32.0
11.798309326171875,40.0
11.798532247543335,34.0
11.798755168914795,35.0
11.798974990844727,26.0
11.799208402633667,31.0
11.799432277679443,33.0
11.799642324447632,32.0
11.799867153167725,35.0
11.800101280212402,34.0
11.800347328186035,34.0
11.800577163696289,36.0
11.800803184509277,33.0
11.801027059555054,32.0
11.801342964172363,39.0
11.80162000656128,34.0
11.801866054534912,33.0
11.802098274230957,32.0
11.802318096160889,24.0
11.802541255950928,32.0
11.802764177322388,32.0
11.802990198135376,35.0
11.803218364715576,36.0
11.803428173065186,33.0
11.803638219833374,33.0
11.8038489818573,34.0
11.804060220718384,34.0
11.804274320602417,37.0
11.804486274719238,32.0
11.804702043533325,31.0
11.804917097091675,27.0
11.805183172225952,27.0
11.805397033691406,34.0
11.805627346038818,38.0
11.805841207504272,28.0
11.806051254272461,35.0
11.806258201599121,34.0
11.806469202041626,30.0
11.806690216064453,37.0
11.806907176971436,34.0
11.807116031646729,33.0
11.807329177856445,32.0
11.807539224624634,32.0
11.807753086090088,31.0
11.807969093322754,35.0
11.808189392089844,31.0
11.808408260345459,34.0
11.808629035949707,35.0
11.808849334716797,33.0
11.809067010879517,33.0
11.80928635597229,33.0
11.809502124786377,32.0
11.809723138809204,33.0
11.809935092926025,33.0
11.810145139694214,24.0
11.810354232788086,30.0
11.81056523323059,33.0
11.810770988464355,34.0
11.81098222732544,29.0
11.811195135116577,31.0
11.811407089233398,33.0
11.811622142791748,35.0
11.811836242675781,31.0
11.81204628944397,35.0
11.812257051467896,33.0
11.812466382980347,33.0
11.812676191329956,31.0
11.812894105911255,36.0
11.813103199005127,35.0
11.81330919265747,33.0
11.813515186309814,32.0
11.813725233078003,29.0
11.813937187194824,30.0
11.814151287078857,31.0
11.814366102218628,35.0
11.814581155776978,35.0
11.814796209335327,32.0
11.815012216567993,36.0
11.81522822380066,32.0
11.815441131591797,32.0
11.81565809249878,34.0
11.815875053405762,35.0
11.816088199615479,33.0
11.816305160522461,33.0
11.816522121429443,37.0
11.816735982894897,34.0
11.816951036453247,33.0
11.817164182662964,35.0
11.817378044128418,34.0
11.817592144012451,33.0
11.817821264266968,35.0
11.818035364151001,36.0
11.818247318267822,31.0
11.818458318710327,33.0
11.818669080734253,34.0
11.818886280059814,33.0
11.819100141525269,35.0
11.819314241409302,34.0
11.81952714920044,35.0
11.81973934173584,33.0
11.819951295852661,35.0
11.820162057876587,35.0
11.820375204086304,33.0
11.820589065551758,34.0
11.820804119110107,36.0
11.821020364761353,32.0
11.821234226226807,28.0
11.821444272994995,34.0
11.821654081344604,31.0
11.82186508178711,33.0
11.822073221206665,34.0
11.82228708267212,33.0
11.822503328323364,25.0
11.822716236114502,31.0
11.822931051254272,32.0
11.82314920425415,34.0
11.823366165161133,34.0
11.823577165603638,35.0
11.823789119720459,36.0
11.82400107383728,31.0
11.824214220046997,28.0
11.824424266815186,34.0
11.824637174606323,31.0
11.8248450756073,31.0
11.825057029724121,32.0
11.825268030166626,35.0
11.825480222702026,25.0
11.82569408416748,36.0
11.825910091400146,31.0
11.82612419128418,34.0
11.826334953308105,32.0
11.826545238494873,29.0
11.826754093170166,36.0
11.826962947845459,33.0
11.827173233032227,32.0
11.827385187149048,34.0
11.827596187591553,33.0
11.827811241149902,33.0
11.828022003173828,29.0
11.828233003616333,27.0
11.828447103500366,31.0
11.828662157058716,34.0
11.828877210617065,32.0
11.82909107208252,25.0
11.82930612564087,38.0
11.829520225524902,31.0
11.829738140106201,35.0
11.82995319366455,32.0
11.830177068710327,31.0
11.830395221710205,33.0
11.83060622215271,32.0
11.830818176269531,31.0
11.83102798461914,36.0
11.831258296966553,39.0
11.831470251083374,37.0
11.831685304641724,31.0
11.831898212432861,33.0
11.832109212875366,34.0
11.83232307434082,33.0
11.832534074783325,34.0
11.83274507522583,33.0
11.832954168319702,35.0
11.833163022994995,32.0
11.833373308181763,20.0
11.833585262298584,35.0
11.833798170089722,35.0
11.834010124206543,34.0
11.834225177764893,36.0
11.834435224533081,35.0
11.834646224975586,36.0
11.834856271743774,33.0
11.835069179534912,37.0
11.835283041000366,34.0
11.835496187210083,33.0
11.835705280303955,33.0
11.835914134979248,34.0
11.83613109588623,36.0
11.836347341537476,28.0
11.836562156677246,32.0
11.83677625656128,43.0
11.836989164352417,36.0
11.837209224700928,35.0
11.837422132492065,35.0
11.837635278701782,33.0
11.837851285934448,36.0
11.838065147399902,38.0
11.838279247283936,33.0
11.838492155075073,36.0
11.83870530128479,34.0
11.838918209075928,35.0
11.839131116867065,36.0
11.83934211730957,34.0
11.839550018310547,36.0
11.839762926101685,37.0
11.839975357055664,35.0
11.840188264846802,35.0
11.84040117263794,37.0
11.840620040893555,33.0
11.840833187103271,35.0
11.84105396270752,35.0
11.841276168823242,32.0
11.84149718284607,36.0
11.841713190078735,33.0
11.841928958892822,36.0
11.842154026031494,38.0
11.842384338378906,29.0
11.842607259750366,34.0
11.842823266983032,33.0
11.84303903579712,36.0
11.843252182006836,32.0
11.843464374542236,38.0
11.843679189682007,28.0
11.843890190124512,32.0
11.844105005264282,33.0
11.844321012496948,38.0
11.844537258148193,38.0
11.844764232635498,32.0
11.844978332519531,33.0
11.845192193984985,32.0
11.84540605545044,38.0
11.845621109008789,31.0
11.845838069915771,35.0
11.846050024032593,30.0
11.84626317024231,37.0
11.846480131149292,36.0
11.846694231033325,35.0
11.846907138824463,35.0
11.847121238708496,33.0
11.847332239151001,33.0
11.847544193267822,35.0
11.847756147384644,33.0
11.847971200942993,37.0
11.848186254501343,35.0
11.84839916229248,36.0
11.848611116409302,36.0
11.848826169967651,39.0
11.849041223526001,35.0
11.849252223968506,37.0
11.849470138549805,36.0
11.849684000015259,33.0
11.849899053573608,35.0
11.850112199783325,33.0
11.850327253341675,28.0
11.85054636001587,36.0
11.850763082504272,28.0
11.850979089736938,32.0
11.851209163665771,36.0
11.851429224014282,35.0
11.851639032363892,34.0
11.851860046386719,32.0
11.852071285247803,36.0
11.85229229927063,31.0
11.852519273757935,37.0
11.852742195129395,34.0
11.852963209152222,26.0
11.853295087814331,34.0
11.853564262390137,35.0
11.853811264038086,38.0
11.854045391082764,33.0
11.854276180267334,33.0
11.854489088058472,37.0
11.854703187942505,36.0
11.85493016242981,32.0
11.855164289474487,35.0
11.855380058288574,37.0
11.85560417175293,37.0
11.855833292007446,33.0
11.856068134307861,34.0
11.856304168701172,35.0
11.85653018951416,33.0
11.856755256652832,35.0
11.856975317001343,33.0
11.85719609260559,34.0
11.857407093048096,31.0
11.857620000839233,34.0
11.85783314704895,40.0
11.858051061630249,27.0
11.858282089233398,35.0
11.858497142791748,25.0
11.858733177185059,32.0
11.85895299911499,34.0
11.85916519165039,34.0
11.859381198883057,33.0
11.859593152999878,34.0
11.859814167022705,35.0
11.860021114349365,35.0
11.860230207443237,31.0
11.860438108444214,31.0
11.860644102096558,34.0
11.860855102539062,29.0
11.861065149307251,36.0
11.86127519607544,33.0
11.861486196517944,34.0
11.86169719696045,32.0
11.861917972564697,35.0
11.862133026123047,32.0
11.862343311309814,36.0
11.862558126449585,37.0
11.86277723312378,34.0
11.862986087799072,34.0
11.863203048706055,34.0
11.863422155380249,37.0
11.863654136657715,38.0
11.863875150680542,36.0
11.864097118377686,40.0
11.86436414718628,36.0
11.86458420753479,36.0
11.864799976348877,37.0
11.865010261535645,36.0
11.865248203277588,36.0
11.865458250045776,36.0
11.865697145462036,36.0
11.865914106369019,35.0
11.866131067276001,31.0
11.866340160369873,35.0
11.866549015045166,34.0
11.866762161254883,36.0
11.866972208023071,27.0
11.867187976837158,34.0
11.867409229278564,32.0
11.867627143859863,34.0
11.86784839630127,34.0
11.868072271347046,32.0
11.868287086486816,36.0
11.86850118637085,34.0
11.868715047836304,35.0
11.868930101394653,26.0
11.869148254394531,33.0
11.869364976882935,41.0
11.869632005691528,34.0
11.869877099990845,34.0
11.870110988616943,35.0
11.87034010887146,35.0
11.870558977127075,36.0
11.87077021598816,35.0
11.870984315872192,36.0
11.87119722366333,36.0
11.871409177780151,32.0
11.871624946594238,29.0
11.8718421459198,35.0
11.872063159942627,35.0
11.872278213500977,30.0
11.872512102127075,35.0
11.872732162475586,31.0
11.872950077056885,33.0
11.873175144195557,34.0
11.873390197753906,36.0
11.873606204986572,34.0
11.873825073242188,27.0
11.874038219451904,34.0
11.874266147613525,31.0
11.874486207962036,35.0
11.874703168869019,35.0
11.874919176101685,33.0
11.875133275985718,35.0
11.875347137451172,31.0
11.875560998916626,35.0
11.875783205032349,35.0
11.876015186309814,29.0
11.876238107681274,34.0
11.876451253890991,34.0
11.876668214797974,30.0
11.87688136100769,35.0
11.877094268798828,34.0
11.877386093139648,35.0
11.87764310836792,36.0
11.87813401222229,38.0
11.87851595878601,32.0
11.878762006759644,34.0
11.87899923324585,36.0
11.8792142868042,36.0
11.879421949386597,36.0
11.879714250564575,35.0
11.879976272583008,37.0
11.880200386047363,35.0
11.880414009094238,34.0
11.880646228790283,29.0
11.88088321685791,37.0
11.881111145019531,34.0
11.881356239318848,34.0
11.881576299667358,38.0
11.88180422782898,37.0
11.882025003433228,36.0
11.882260084152222,40.0
11.882492303848267,26.0
11.882725238800049,25.0
11.882944107055664,28.0
11.88316011428833,36.0
11.883382081985474,35.0
11.883600234985352,36.0
11.883829116821289,35.0
11.884052038192749,36.0
11.884267091751099,36.0
11.884481191635132,36.0
11.884701251983643,32.0
11.884912252426147,33.0
11.885123252868652,35.0
11.885354042053223,37.0
11.885576963424683,36.0
11.886005163192749,26.0
11.886401176452637,34.0
11.886621236801147,33.0
11.886844158172607,33.0
11.88706111907959,35.0
11.8872811794281,35.0
11.88750433921814,34.0
11.887728214263916,33.0
11.887944221496582,27.0
11.888164281845093,38.0
11.888371229171753,35.0
11.888594388961792,32.0
11.888808965682983,34.0
11.889012098312378,36.0
11.889212369918823,34.0
11.889425277709961,34.0
11.889687061309814,34.0
11.890011310577393,33.0
11.89026927947998,37.0
11.890491247177124,35.0
11.890713214874268,37.0
11.890939235687256,35.0
11.891154289245605,36.0
11.89136528968811,34.0
11.891574144363403,36.0
11.891782283782959,34.0
11.891993284225464,26.0
11.892211198806763,35.0
11.892427206039429,27.0
11.892644166946411,37.0
11.892863988876343,32.0
11.89308214187622,28.0
11.89330530166626,37.0
11.893524169921875,35.0
11.893742084503174,37.0
11.894283056259155,38.0
11.894566297531128,36.0
11.894804000854492,34.0
11.895025253295898,31.0
11.895254135131836,33.0
11.89546823501587,37.0
11.895678043365479,35.0
11.895910263061523,31.0
11.896116018295288,29.0
11.896331071853638,28.0
11.896550178527832,34.0
11.896763324737549,28.0
11.89697003364563,36.0
11.897195100784302,33.0
11.897409200668335,38.0
11.897625207901001,28.0
11.89783239364624,34.0
11.898036003112793,34.0
11.898247241973877,32.0
11.898467063903809,28.0
11.89868426322937,38.0
11.898890018463135,29.0
11.899103164672852,39.0
11.899310111999512,34.0
11.899518013000488,39.0
11.899840116500854,32.0
11.900118112564087,32.0
11.900347232818604,36.0
11.900569200515747,37.0
11.900790214538574,33.0
11.901010274887085,37.0
11.901244163513184,38.0
11.9014573097229,26.0
11.901689291000366,28.0
11.90191102027893,35.0
11.902124166488647,39.0
11.902335166931152,30.0
11.90254521369934,33.0
11.902758121490479,34.0
11.902974128723145,34.0
11.903183221817017,38.0
11.903394222259521,37.0
11.90372109413147,26.0
11.90400218963623,28.0
11.904237270355225,36.0
11.904462099075317,39.0
11.904684066772461,38.0
11.90489912033081,39.0
11.905119180679321,30.0
11.905332088470459,36.0
11.905542135238647,37.0
11.905753135681152,28.0
11.905969142913818,35.0
11.906200170516968,35.0
11.906427145004272,35.0
11.906654119491577,35.0
11.906867265701294,34.0
11.907100200653076,38.0
11.907332181930542,35.0
11.907548189163208,35.0
11.907778024673462,35.0
11.90799617767334,36.0
11.908211946487427,36.0
11.908430099487305,35.0
11.90864896774292,36.0
11.908870220184326,37.0
11.909094333648682,35.0
11.909319162368774,37.0
11.909539222717285,34.0
11.909759044647217,36.0
11.9099862575531,37.0
11.910202264785767,36.0
11.91041111946106,36.0
11.910620212554932,38.0
11.910835981369019,39.0
11.911287069320679,28.0
11.911603212356567,36.0
11.911824226379395,39.0
11.912040948867798,29.0
11.912246227264404,35.0
11.912446975708008,35.0
11.91265320777893,34.0
11.912848234176636,36.0
11.913055181503296,37.0
11.913260221481323,37.0
11.913479328155518,34.0
11.913689136505127,38.0
11.91390323638916,32.0
11.914101123809814,26.0
11.914323091506958,33.0
11.914529085159302,36.0
11.914730072021484,35.0
11.914931297302246,38.0
11.915143251419067,35.0
11.915341138839722,34.0
11.91554307937622,29.0
11.915739297866821,38.0
11.915951251983643,37.0
11.91615629196167,33.0
11.916369199752808,32.0
11.916577100753784,35.0
11.916788101196289,33.0
11.916993141174316,39.0
11.917200326919556,38.0
11.917404174804688,37.0
11.917603254318237,37.0
11.917801141738892,37.0
11.918006181716919,36.0
11.918205261230469,37.0
11.91840410232544,35.0
11.918605089187622,38.0
11.918805122375488,35.0
11.919008016586304,36.0
11.919214248657227,34.0
11.919425010681152,38.0
11.91963505744934,41.0
11.919832229614258,37.0
11.92003607749939,37.0
11.920252323150635,38.0
11.920478105545044,40.0
11.920675277709961,36.0
11.920878171920776,35.0
11.921313047409058,37.0
11.92165207862854,35.0
11.921884298324585,31.0
11.922110080718994,38.0
11.922351121902466,28.0
11.922569990158081,35.0
11.922788143157959,33.0
11.92300009727478,37.0
11.923216104507446,34.0
11.923421382904053,35.0
11.923638105392456,37.0
11.923863172531128,42.0
11.92408013343811,38.0
11.924294233322144,38.0
11.924512147903442,33.0
11.924727201461792,37.0
11.924943208694458,35.0
11.92516303062439,35.0
11.925380229949951,40.0
11.925600051879883,39.0
11.925819158554077,35.0
11.92603611946106,35.0
11.92625117301941,28.0
11.92647409439087,37.0
11.926693201065063,35.0
11.92691421508789,35.0
11.927130222320557,34.0
11.927381992340088,34.0
11.927601337432861,32.0
11.927817106246948,35.0
11.928036212921143,37.0
11.928246021270752,38.0
11.928452253341675,26.0
11.928658246994019,35.0
11.928865194320679,35.0
11.929081201553345,40.0
11.929304122924805,35.0
11.929521322250366,35.0
11.929747104644775,36.0
11.929965257644653,36.0
11.930180072784424,31.0
11.93040418624878,35.0
11.930624008178711,34.0
11.930840253829956,36.0
11.931058168411255,38.0
11.931297063827515,35.0
11.931511163711548,29.0
11.931734085083008,35.0
11.93195915222168,37.0
11.932183027267456,31.0
11.932403326034546,37.0
11.932616233825684,33.0
11.932835102081299,39.0
11.933049201965332,36.0
11.933274269104004,35.0
11.933497190475464,38.0
11.933715105056763,35.0
11.933931112289429,38.0
11.934147119522095,31.0
11.934376239776611,37.0
11.934597253799438,36.0
11.934810161590576,27.0
11.935021162033081,38.0
11.935229301452637,39.0
11.935436010360718,35.0
11.935646057128906,35.0
11.935856342315674,33.0
11.936068296432495,37.0
11.936272144317627,38.0
11.93647813796997,38.0
11.936683177947998,35.0
11.936890125274658,34.0
11.937101125717163,35.0
11.937318325042725,31.0
11.937520265579224,37.0
11.937726974487305,35.0
11.937932014465332,38.0
11.938138246536255,39.0
11.938344240188599,36.0
11.938599348068237,38.0
11.938820123672485,38.0
11.939038038253784,39.0
11.939275026321411,37.0
11.93949007987976,35.0
11.93970513343811,39.0
11.939915180206299,29.0
11.940137147903442,39.0
11.940366268157959,37.0
11.940580129623413,37.0
11.940795183181763,37.0
11.941026210784912,37.0
11.941232204437256,35.0
11.941445112228394,37.0
11.941655158996582,35.0
11.941864967346191,34.0
11.942077398300171,38.0
11.942314147949219,40.0
11.942531108856201,40.0
11.942749261856079,38.0
11.942970275878906,37.0
11.943185329437256,37.0
11.943400382995605,38.0
11.943616151809692,39.0
11.943831205368042,38.0
11.944041967391968,36.0
11.944254159927368,36.0
11.944462060928345,36.0
11.944672107696533,40.0
11.944879293441772,39.0
11.945089101791382,39.0
11.945303201675415,35.0
11.945523262023926,40.0
11.945733308792114,39.0
11.945943117141724,39.0
11.946149110794067,35.0
11.946373224258423,36.0
11.946582078933716,37.0
11.946789264678955,36.0
11.947002172470093,37.0
11.947240352630615,34.0
11.94745922088623,37.0
11.94768214225769,37.0
11.947901964187622,37.0
11.948113203048706,34.0
11.948337316513062,35.0
11.948549270629883,34.0
11.948763132095337,37.0
11.94897723197937,37.0
11.949195146560669,37.0
11.949424266815186,33.0
11.949630975723267,39.0
11.94985318183899,37.0
11.95006012916565,41.0
11.950274229049683,39.0
11.950486183166504,35.0
11.95070219039917,36.0
11.95091724395752,32.0
11.951141119003296,37.0
11.951377153396606,38.0
11.951590299606323,28.0
11.951801300048828,31.0
11.952008962631226,35.0
11.952216148376465,36.0
11.952422142028809,36.0
11.95263123512268,37.0
11.95283818244934,37.0
11.953042984008789,36.0
11.953258037567139,35.0
11.953464269638062,41.0
11.95368504524231,34.0
11.95388913154602,40.0
11.954097270965576,35.0
11.954305171966553,35.0
11.954522132873535,33.0
11.95473837852478,34.0
11.954954147338867,39.0
11.955181121826172,37.0
11.955398321151733,39.0
11.955615043640137,40.0
11.955820083618164,37.0
11.956025123596191,36.0
11.956249237060547,33.0
11.956470012664795,39.0
11.956685066223145,38.0
11.956900119781494,40.0
11.957117319107056,34.0
11.957342147827148,37.0
11.957558155059814,36.0
11.95777416229248,35.0
11.957987070083618,39.0
11.95820426940918,35.0
11.958433151245117,38.0
11.958654165267944,40.0
11.958868026733398,39.0
11.959079265594482,27.0
11.95929217338562,38.0
11.959503173828125,37.0
11.959715127944946,36.0
11.95992136001587,38.0
11.960130214691162,37.0
11.960339069366455,36.0
11.96054720878601,39.0
11.960753202438354,38.0
11.960961103439331,31.0
11.961172103881836,40.0
11.96138334274292,38.0
11.961589097976685,35.0
11.961800336837769,35.0
11.962006092071533,38.0
11.962212085723877,39.0
11.962422132492065,36.0
11.962634086608887,38.0
11.96284008026123,37.0
11.963046312332153,37.0
11.96325421333313,28.0
11.963459253311157,40.0
11.963667154312134,33.0
11.963879346847534,37.0
11.96409010887146,40.0
11.964331150054932,40.0
11.964543104171753,39.0
11.96475601196289,39.0
11.964968204498291,40.0
11.965195178985596,37.0
11.965426206588745,36.0
11.965641975402832,36.0
11.96586012840271,31.0
11.966076374053955,39.0
11.966280937194824,39.0
11.966491222381592,30.0
11.96670413017273,37.0
11.966915130615234,37.0
11.967129230499268,39.0
11.967345237731934,38.0
11.967559337615967,39.0
11.96776819229126,29.0
11.967973232269287,35.0
11.968184232711792,36.0
11.968398094177246,39.0
11.96861219406128,36.0
11.968823194503784,35.0
11.969029188156128,37.0
11.969242095947266,40.0
11.969454288482666,39.0
11.96966028213501,39.0
11.969865083694458,38.0
11.970072269439697,37.0
11.97028923034668,37.0
11.97049617767334,35.0
11.970704317092896,38.0
11.970909357070923,36.0
11.971118211746216,38.0
11.97133207321167,38.0
11.971539974212646,36.0
11.97174620628357,38.0
11.97195315361023,37.0
11.972159147262573,37.0
11.9723641872406,36.0
11.972568273544312,38.0
11.972774267196655,37.0
11.972979307174683,35.0
11.97318410873413,42.0
11.973390102386475,39.0
11.973594188690186,38.0
11.97379732131958,38.0
11.974002361297607,33.0
11.974214315414429,44.0
11.974429368972778,32.0
11.974639177322388,37.0
11.974854230880737,37.0
11.975069284439087,44.0
11.975287199020386,35.0
11.975499153137207,36.0
11.975712060928345,36.0
11.975937128067017,41.0
11.976153135299683,36.0
11.976365089416504,38.0
11.976569175720215,37.0
11.97678017616272,35.0
11.976992130279541,38.0
11.977201223373413,35.0
11.977408170700073,40.0
11.977615118026733,40.0
11.977831363677979,36.0
11.9780433177948,38.0
11.978269338607788,40.0
11.978474140167236,41.0
11.978682279586792,31.0
11.978891134262085,43.0
11.979098320007324,38.0
11.97931432723999,35.0
11.979520082473755,38.0
11.979726076126099,41.0
11.979937076568604,39.0
11.980141162872314,41.0
11.980350017547607,36.0
11.98055911064148,39.0
11.98076605796814,38.0
11.980976104736328,41.0
11.9811851978302,39.0
11.981391191482544,40.0
11.98159909248352,39.0
11.981803178787231,40.0
11.98201322555542,35.0
11.982222080230713,40.0
11.982436180114746,37.0
11.982640266418457,33.0
11.982845306396484,31.0
11.983052015304565,37.0
11.983261346817017,36.0
11.983471155166626,38.0
11.983681201934814,29.0
11.983890295028687,36.0
11.984103202819824,37.0
11.984321117401123,37.0
11.984535217285156,30.0
11.984747171401978,36.0
11.984957933425903,41.0
11.985172033309937,40.0
11.985388040542603,39.0
11.98559308052063,40.0
11.985798120498657,41.0
11.986006021499634,37.0
11.986215353012085,41.0
11.986419200897217,41.0
11.986634016036987,36.0
11.986847162246704,36.0
11.987062215805054,35.0
11.987282276153564,38.0
11.987496376037598,37.0
11.987701177597046,38.0
11.987921237945557,39.0
11.98813009262085,41.0
11.988337278366089,41.0
11.988543033599854,19.0
11.988752126693726,39.0
11.98895812034607,33.0
11.989164113998413,36.0
11.989372253417969,39.0
11.989583253860474,38.0
11.989788293838501,38.0
11.98999309539795,36.0
11.99019718170166,41.0
11.99039912223816,36.0
11.99060606956482,40.0
11.990815162658691,36.0
11.991022109985352,38.0
11.991230964660645,40.0
11.991441249847412,38.0
11.991655349731445,37.0
11.991871118545532,39.0
11.992088079452515,36.0
11.99229621887207,35.0
11.992515087127686,40.0
11.9927339553833,41.0
11.992938995361328,39.0
11.993145227432251,39.0
11.993352174758911,37.0
11.993559122085571,36.0
11.993764162063599,37.0
11.993969202041626,38.0
11.994173288345337,38.0
11.994381189346313,38.0
11.994587182998657,33.0
11.99479603767395,36.0
11.995010137557983,39.0
11.995217323303223,37.0
11.9954252243042,37.0
11.995633363723755,36.0
11.995840072631836,39.0
11.99604606628418,37.0
11.996251344680786,40.0
11.996456384658813,42.0
11.9966721534729,36.0
11.9968740940094,36.0
11.997074365615845,38.0
11.99728012084961,37.0
11.997486114501953,36.0
11.99769401550293,38.0
11.997899055480957,37.0
11.998102188110352,31.0
11.998316049575806,39.0
11.998521089553833,38.0
11.998725175857544,39.0
11.998930215835571,37.0
11.999141216278076,42.0
11.999349117279053,37.0
11.999561071395874,34.0
11.99977707862854,36.0
11.999999046325684,38.0
12.000214099884033,35.0
12.0004301071167,37.0
12.00064730644226,36.0
12.000861167907715,39.0
12.001079082489014,36.0
12.001318216323853,39.0
12.00153398513794,40.0
12.00174331665039,38.0
12.001955270767212,38.0
12.002167224884033,35.0
12.002379179000854,38.0
12.002592086791992,30.0
12.002803325653076,38.0
12.003014326095581,31.0
12.00322413444519,37.0
12.003434181213379,37.0
12.003643274307251,36.0
12.003866195678711,38.0
12.004078149795532,33.0
12.004295349121094,37.0
12.004515171051025,39.0
12.004724979400635,35.0
12.004937171936035,39.0
12.005146265029907,37.0
12.0053551197052,35.0
12.005561113357544,31.0
12.005772113800049,37.0
12.00598406791687,39.0
12.006195306777954,40.0
12.006405115127563,38.0
12.006612062454224,36.0
12.006824970245361,35.0
12.007031202316284,39.0
12.007240295410156,39.0
12.007447242736816,35.0
12.007654190063477,34.0
12.007859945297241,39.0
12.008065223693848,32.0
12.008285999298096,38.0
12.008535146713257,41.0
12.008747100830078,36.0
12.008958101272583,36.0
12.009169340133667,39.0
12.009381294250488,36.0
12.009589195251465,40.0
12.00980019569397,36.0
12.010008096694946,39.0
12.010220050811768,38.0
12.010429382324219,37.0
12.010638236999512,38.0
12.010862112045288,38.0
12.01107931137085,36.0
12.011291265487671,36.0
12.011516332626343,38.0
12.011726140975952,38.0
12.011945009231567,40.0
12.012158155441284,36.0
12.012368202209473,39.0
12.012577056884766,39.0
12.012786388397217,34.0
12.012997150421143,35.0
12.01320505142212,30.0
12.013412237167358,39.0
12.013620138168335,39.0
12.013827085494995,35.0
12.014036178588867,37.0
12.014243125915527,42.0
12.01444935798645,37.0
12.014655113220215,37.0
12.014865159988403,28.0
12.015074253082275,36.0
12.01530909538269,36.0
12.015521049499512,28.0
12.015732049942017,37.0
12.015940189361572,35.0
12.016148090362549,38.0
12.016358137130737,38.0
12.01656723022461,32.0
12.016777038574219,40.0
12.01698923110962,37.0
12.017198085784912,40.0
12.017407178878784,39.0
12.017617225646973,38.0
12.017827272415161,43.0
12.01803708076477,40.0
12.018248319625854,38.0
12.018478155136108,31.0
12.018688201904297,39.0
12.018896341323853,36.0
12.019106149673462,41.0
12.019314289093018,42.0
12.019525289535522,36.0
12.019735097885132,38.0
12.019944190979004,38.0
12.020155191421509,41.0
12.020366191864014,38.0
12.020575046539307,38.0
12.020783185958862,39.0
12.020994186401367,42.0
12.021217107772827,40.0
12.021427392959595,38.0
12.02163815498352,38.0
12.021846055984497,39.0
12.022057056427002,37.0
12.022271156311035,38.0
12.02248215675354,37.0
12.022693157196045,35.0
12.022903203964233,38.0
12.023111343383789,36.0
12.023321151733398,36.0
12.023531198501587,38.0
12.023741245269775,39.0
12.023950099945068,32.0
12.024160146713257,38.0
12.024373054504395,38.0
12.024585962295532,37.0
12.0247962474823,44.0
12.025009155273438,36.0
12.02521824836731,35.0
12.025427103042603,38.0
12.025640964508057,36.0
12.025853395462036,37.0
12.026064157485962,37.0
12.02627420425415,36.0
12.026486158370972,35.0
12.026700019836426,30.0
12.026912212371826,40.0
12.02712607383728,40.0
12.027344226837158,39.0
12.027557134628296,36.0
12.027767181396484,35.0
12.027990102767944,36.0
12.028215169906616,37.0
12.028434991836548,34.0
12.028649091720581,36.0
12.028861999511719,28.0
12.029080152511597,36.0
12.029296159744263,35.0
12.029506206512451,36.0
12.029719114303589,35.0
12.02993106842041,38.0
12.030141353607178,35.0
12.030349254608154,36.0
12.030559062957764,32.0
12.030773162841797,29.0
12.030986070632935,38.0
12.031206130981445,37.0
12.031423091888428,40.0
12.031649112701416,30.0
12.031873226165771,35.0
12.03209924697876,35.0
12.032338380813599,36.0
12.03255033493042,41.0
12.03276014328003,33.0
12.032968282699585,38.0
12.033176183700562,39.0
12.033384323120117,37.0
12.033595323562622,36.0
12.033812999725342,39.0
12.034020185470581,38.0
12.034226179122925,39.0
12.034434080123901,36.0
12.03464412689209,32.0
12.034853219985962,34.0
12.035063028335571,36.0
12.035279273986816,36.0
12.035491228103638,38.0
12.035702228546143,36.0
12.035912275314331,36.0
12.036135196685791,31.0
12.0363609790802,30.0
12.036579132080078,36.0
12.03679633140564,34.0
12.037007093429565,37.0
12.03733515739441,35.0
12.03761100769043,36.0
12.037844181060791,35.0
12.03807020187378,36.0
12.038308143615723,32.0
12.038526058197021,39.0
12.038751125335693,36.0
12.038969278335571,40.0
12.039194107055664,40.0
12.039422035217285,37.0
12.039634943008423,36.0
12.0398530960083,39.0
12.040073156356812,37.0
12.040287017822266,39.0
12.040504217147827,39.0
12.040717124938965,40.0
12.040932178497314,41.0
12.041150093078613,41.0
12.041369199752808,41.0
12.04158902168274,31.0
12.041805267333984,40.0
12.042025089263916,40.0
12.042247295379639,41.0
12.042464017868042,40.0
12.042678117752075,40.0
12.042891025543213,39.0
12.043108224868774,37.0
12.043325185775757,39.0
12.043553113937378,39.0
12.043844223022461,39.0
12.044347286224365,36.0
12.044589042663574,38.0
12.044806241989136,38.0
12.045020341873169,39.0
12.045229196548462,36.0
12.045431137084961,40.0
12.04564619064331,38.0
12.045858144760132,38.0
12.046065330505371,39.0
12.046279191970825,34.0
12.046485185623169,32.0
12.046685218811035,38.0
12.04688835144043,38.0
12.0471031665802,37.0
12.047500133514404,34.0
12.047778129577637,38.0
12.048011064529419,37.0
12.048261165618896,37.0
12.048481225967407,37.0
12.048701286315918,36.0
12.048916101455688,32.0
12.0491361618042,36.0
12.049369096755981,37.0
12.049580097198486,33.0
12.049792051315308,39.0
12.050002336502075,37.0
12.05021619796753,36.0
12.050432205200195,40.0
12.050650119781494,40.0
12.050872087478638,37.0
12.051112174987793,30.0
12.051362037658691,35.0
12.051582098007202,37.0
12.051805257797241,37.0
12.052030086517334,38.0
12.052240133285522,29.0
12.052468061447144,36.0
12.052682161331177,35.0
12.05289912223816,39.0
12.053115129470825,40.0
12.053352355957031,42.0
12.053601026535034,38.0
12.053822994232178,36.0
12.054038047790527,31.0
12.054270029067993,37.0
12.05448603630066,37.0
12.054716348648071,35.0
12.054930925369263,29.0
12.055144309997559,36.0
12.05537724494934,37.0
12.055593967437744,33.0
12.055811166763306,29.0
