time,emg
0.015229940414428711,598.0
0.02754807472229004,587.0
0.03756093978881836,588.0
0.04990696907043457,593.0
0.05839991569519043,601.0
0.06409692764282227,567.0
0.06979799270629883,578.0
0.07435011863708496,580.0
0.07832813262939453,584.0
0.08312606811523438,583.0
0.08766889572143555,576.0
0.09306001663208008,580.0
0.09682512283325195,577.0
0.10203790664672852,587.0
0.10591316223144531,571.0
0.11356592178344727,588.0
0.11820006370544434,591.0
0.12183690071105957,583.0
0.12604999542236328,573.0
0.1298830509185791,583.0
0.13466382026672363,600.0
0.13828086853027344,591.0
0.1429429054260254,588.0
0.14641094207763672,588.0
0.15055608749389648,584.0
0.1540389060974121,583.0
0.16086196899414062,582.0
0.16548919677734375,584.0
0.17034912109375,579.0
0.17724990844726562,577.0
0.1822221279144287,588.0
0.18692493438720703,591.0
0.19404006004333496,591.0
0.19929909706115723,574.0
0.20352411270141602,583.0
0.2106637954711914,588.0
0.2155759334564209,590.0
0.22024011611938477,607.0
0.22708916664123535,593.0
0.23549509048461914,590.0
0.24068403244018555,562.0
0.24515104293823242,579.0
0.25214409828186035,573.0
0.2571530342102051,577.0
0.2619800567626953,585.0
0.26879000663757324,585.0
0.273637056350708,581.0
0.27845287322998047,588.0
0.28591299057006836,587.0
0.2937650680541992,584.0
0.2988290786743164,582.0
0.30699586868286133,584.0
0.3150210380554199,568.0
0.32315802574157715,594.0
0.328167200088501,586.0
0.332294225692749,577.0
0.34023499488830566,573.0
0.34750890731811523,569.0
0.3555121421813965,571.0
0.3607611656188965,575.0
0.3653590679168701,550.0
0.3702881336212158,579.0
0.37550902366638184,565.0
0.3799409866333008,555.0
0.3845241069793701,584.0
0.3888099193572998,596.0
0.39418601989746094,588.0
0.3988971710205078,583.0
0.40322303771972656,580.0
0.41038990020751953,588.0
0.4187052249908447,594.0
0.4240691661834717,593.0
0.4292311668395996,566.0
0.4362349510192871,583.0
0.4445769786834717,567.0
0.45244312286376953,575.0
0.46033716201782227,564.0
0.46544718742370605,580.0
0.47298502922058105,574.0
0.4797029495239258,584.0
0.4837942123413086,592.0
0.4876668453216553,593.0
0.4939100742340088,594.0
0.4982478618621826,590.0
0.5045130252838135,592.0
0.5108158588409424,564.0
0.515254020690918,591.0
0.5218510627746582,582.0
0.5262918472290039,591.0
0.5298328399658203,579.0
0.535836935043335,583.0
0.5402119159698486,582.0
0.5467090606689453,580.0
0.5512170791625977,574.0
0.5548501014709473,580.0
0.5610389709472656,577.0
0.5654478073120117,588.0
0.5693008899688721,586.0
0.5731489658355713,587.0
0.5795109272003174,585.0
0.5839211940765381,585.0
0.5876710414886475,584.0
0.5942168235778809,589.0
0.5990829467773438,598.0
0.6033930778503418,595.0
0.6072921752929688,583.0
0.6135878562927246,584.0
0.6180720329284668,583.0
0.6219370365142822,570.0
0.6263680458068848,573.0
0.6304030418395996,586.0
0.634814977645874,584.0
0.6386260986328125,583.0
0.6429932117462158,595.0
0.646543025970459,569.0
0.6506400108337402,595.0
0.6543660163879395,590.0
0.6605119705200195,591.0
0.6649188995361328,592.0
0.6713149547576904,591.0
0.6775600910186768,602.0
0.682121992111206,599.0
0.6861639022827148,589.0
0.6901099681854248,580.0
0.6964972019195557,587.0
0.7010531425476074,581.0
0.704721212387085,581.0
0.7108170986175537,582.0
0.715303897857666,575.0
0.7215559482574463,583.0
0.7261621952056885,588.0
0.7300231456756592,588.0
0.7344958782196045,579.0
0.7385530471801758,566.0
0.7431941032409668,586.0
0.7468578815460205,579.0
0.7512948513031006,587.0
0.7551321983337402,586.0
0.7610940933227539,580.0
0.7654910087585449,552.0
0.7715702056884766,578.0
0.7757060527801514,576.0
0.7791831493377686,551.0
0.7850909233093262,584.0
0.7890448570251465,585.0
0.7933139801025391,582.0
0.7968690395355225,579.0
0.8009850978851318,589.0
0.8045198917388916,599.0
0.8105340003967285,591.0
0.8148720264434814,593.0
0.8210170269012451,590.0
0.827261209487915,582.0
0.8316159248352051,601.0
0.8377411365509033,594.0
0.8440020084381104,584.0
0.8486299514770508,565.0
0.8526830673217773,562.0
0.8565359115600586,573.0
0.8630650043487549,556.0
0.8673961162567139,580.0
0.871039867401123,577.0
0.8772060871124268,571.0
0.8817739486694336,565.0
0.8879930973052979,589.0
0.8942360877990723,593.0
0.8990421295166016,584.0
0.9031810760498047,580.0
0.9073131084442139,583.0
0.9111311435699463,583.0
0.9149930477142334,575.0
0.9212479591369629,583.0
0.9276280403137207,588.0
0.9328198432922363,578.0
0.9369149208068848,577.0
0.9431989192962646,572.0
0.9471530914306641,552.0
0.9514050483703613,575.0
0.9548771381378174,567.0
0.9592502117156982,584.0
0.962867021560669,583.0
0.9688618183135986,582.0
0.9731640815734863,587.0
0.9795520305633545,575.0
0.9857451915740967,577.0
0.990272045135498,586.0
0.9967951774597168,590.0
1.0011229515075684,596.0
1.0045700073242188,581.0
1.0106921195983887,578.0
1.0152080059051514,573.0
1.0214688777923584,562.0
1.0262150764465332,582.0
1.029799222946167,577.0
1.0341291427612305,582.0
1.0377469062805176,579.0
1.0420191287994385,577.0
1.0454940795898438,586.0
1.0514380931854248,592.0
1.055408000946045,589.0
1.059628963470459,576.0
1.0630991458892822,562.0
1.0673751831054688,584.0
1.0709960460662842,593.0
1.07712984085083,592.0
1.081644058227539,582.0
1.0880382061004639,570.0
1.0925428867340088,568.0
1.0961949825286865,576.0
1.1024680137634277,577.0
1.1068220138549805,553.0
1.11319899559021,567.0
1.1174650192260742,567.0
1.1210510730743408,576.0
1.1271569728851318,584.0
1.131403923034668,556.0
1.1377789974212646,552.0
1.1441490650177002,567.0
1.1484770774841309,575.0
1.1547949314117432,572.0
1.1593048572540283,585.0
1.163163185119629,580.0
1.1674120426177979,576.0
1.1709339618682861,555.0
1.1770830154418945,571.0
1.1816260814666748,548.0
1.18790602684021,566.0
1.1921930313110352,572.0
1.1958341598510742,574.0
1.2019109725952148,570.0
1.2058639526367188,578.0
1.212630033493042,576.0
1.2190990447998047,575.0
1.2235639095306396,583.0
1.2299749851226807,576.0
1.2343521118164062,575.0
1.237973928451538,581.0
1.2440528869628906,597.0
1.2486441135406494,582.0
1.255141019821167,578.0
1.259570837020874,571.0
1.2631149291992188,570.0
1.2671949863433838,575.0
1.2708690166473389,569.0
1.2769520282745361,575.0
1.2809059619903564,575.0
1.287627935409546,581.0
1.2940089702606201,583.0
1.2985880374908447,582.0
1.3048970699310303,575.0
1.3094019889831543,575.0
1.3129980564117432,583.0
1.3190808296203613,582.0
1.3234410285949707,595.0
1.3300390243530273,591.0
1.3344922065734863,566.0
1.338486909866333,574.0
1.3428080081939697,572.0
1.3464319705963135,573.0
1.3505980968475342,564.0
1.3544249534606934,566.0
1.3603661060333252,573.0
1.3650009632110596,556.0
1.3713021278381348,575.0
1.3775439262390137,556.0
1.381917953491211,575.0
1.3885550498962402,569.0
1.3931009769439697,565.0
1.3971471786499023,566.0
1.4015820026397705,567.0
1.4054629802703857,576.0
1.4097959995269775,575.0
1.413545846939087,559.0
1.417834997177124,564.0
1.4216980934143066,563.0
1.4260749816894531,562.0
1.4301400184631348,561.0
1.4368391036987305,557.0
1.4420530796051025,561.0
1.4460132122039795,567.0
1.452728033065796,553.0
1.4573040008544922,570.0
1.4634830951690674,575.0
1.4680149555206299,577.0
1.471496820449829,572.0
1.4756321907043457,567.0
1.4791309833526611,571.0
1.485152006149292,577.0
1.489853858947754,572.0
1.494067907333374,573.0
1.4976229667663574,560.0
1.504120111465454,556.0
1.5101549625396729,560.0
1.5141260623931885,561.0
1.520745038986206,564.0
1.5270419120788574,554.0
1.5315279960632324,558.0
1.5379388332366943,572.0
1.5423979759216309,578.0
1.5459718704223633,570.0
1.5521142482757568,573.0
1.556420087814331,570.0
1.5630378723144531,575.0
1.5693809986114502,579.0
1.5738248825073242,586.0
1.577620029449463,561.0
1.581238031387329,569.0
1.5877161026000977,560.0
1.5939440727233887,567.0
1.598818063735962,567.0
1.6034040451049805,568.0
1.6101360321044922,566.0
1.6151840686798096,537.0
1.6215510368347168,556.0
1.6259591579437256,571.0
1.6297378540039062,573.0
1.6339011192321777,578.0
1.6375811100006104,573.0
1.6439499855041504,575.0
1.6484379768371582,576.0
1.6547729969024658,585.0
1.6591589450836182,578.0
1.6627581119537354,568.0
1.668849229812622,567.0
1.673295021057129,559.0
1.6796159744262695,573.0
1.6859791278839111,568.0
1.690877914428711,564.0
1.6947669982910156,561.0
1.698695182800293,565.0
1.7048671245574951,572.0
1.709036111831665,575.0
1.7125539779663086,571.0
1.7184839248657227,572.0
1.7231009006500244,570.0
1.7295548915863037,565.0
1.7341082096099854,557.0
1.7377982139587402,592.0
1.7439930438995361,573.0
1.748884916305542,570.0
1.7526309490203857,563.0
1.7563271522521973,564.0
1.762528896331787,561.0
1.7684950828552246,562.0
1.7725000381469727,566.0
1.7789239883422852,568.0
1.7849688529968262,583.0
1.7889630794525146,572.0
1.7933180332183838,578.0
1.796980857849121,576.0
1.8012640476226807,575.0
1.8050100803375244,571.0
1.8092751502990723,569.0
1.8128077983856201,586.0
1.8189160823822021,576.0
1.8234059810638428,571.0
1.8296339511871338,562.0
1.8341419696807861,568.0
1.8377678394317627,572.0
1.8438498973846436,558.0
1.8484320640563965,563.0
1.8546690940856934,566.0
1.8592181205749512,564.0
1.862990140914917,556.0
1.8692660331726074,569.0
1.874023199081421,573.0
1.8780930042266846,572.0
1.882016897201538,575.0
1.8886170387268066,573.0
1.892892837524414,576.0
1.8968391418457031,585.0
1.9010720252990723,579.0
1.9046189785003662,576.0
1.9107129573822021,567.0
1.9151568412780762,543.0
1.9189770221710205,568.0
1.9223659038543701,574.0
1.9264590740203857,574.0
1.9299869537353516,567.0
1.9344298839569092,566.0
1.937898874282837,578.0
1.9439239501953125,579.0
1.9485712051391602,570.0
1.9525151252746582,575.0
1.9563162326812744,565.0
1.9624650478363037,572.0
1.9685249328613281,579.0
1.9724550247192383,585.0
1.9792938232421875,571.0
1.9856181144714355,569.0
1.9905970096588135,571.0
1.9947490692138672,558.0
1.9986209869384766,567.0
2.0050549507141113,567.0
2.0094268321990967,567.0
2.012908935546875,569.0
2.0191080570220947,557.0
2.023620128631592,576.0
2.027590036392212,578.0
2.0314579010009766,558.0
2.037842035293579,572.0
2.0420432090759277,573.0
2.045620918273926,570.0
2.052140951156616,583.0
2.0566799640655518,579.0
2.06325101852417,565.0
2.067495107650757,560.0
2.0710010528564453,569.0
2.0771591663360596,572.0
2.0815579891204834,571.0
2.087890863418579,570.0
2.0940918922424316,572.0
2.0985560417175293,572.0
2.1047239303588867,575.0
2.109255790710449,579.0
2.112816095352173,579.0
2.1189229488372803,554.0
2.123396158218384,583.0
2.1296398639678955,582.0
2.1340479850769043,583.0
2.1376540660858154,596.0
2.14205002784729,589.0
2.145778179168701,575.0
2.1521048545837402,572.0
2.1570470333099365,575.0
2.1634809970855713,552.0
2.1678810119628906,570.0
2.1715619564056396,557.0
2.175793170928955,573.0
2.1794989109039307,575.0
2.1856470108032227,587.0
2.190079927444458,583.0
2.1967148780822754,580.0
2.2012112140655518,585.0
2.2048470973968506,582.0
2.2090210914611816,576.0
2.212610960006714,588.0
2.2186899185180664,595.0
2.2232820987701416,572.0
2.2300679683685303,578.0
2.2345070838928223,583.0
2.2382099628448486,574.0
2.2423501014709473,566.0
2.24625301361084,573.0
2.2505240440368652,582.0
2.254462957382202,570.0
2.25911283493042,558.0
2.263014078140259,573.0
2.2674951553344727,582.0
2.271376132965088,573.0
2.275692939758301,572.0
2.279527187347412,575.0
2.2858190536499023,575.0
2.2908458709716797,582.0
2.2949700355529785,596.0
2.2988321781158447,579.0
2.303331136703491,572.0
2.307102918624878,563.0
2.311249017715454,570.0
2.315589189529419,577.0
2.3194291591644287,562.0
2.3233718872070312,571.0
2.327388048171997,566.0
2.3316521644592285,584.0
2.3382809162139893,583.0
2.342546224594116,579.0
2.34647798538208,581.0
2.3506970405578613,569.0
2.3544459342956543,573.0
2.360603094100952,588.0
2.36509108543396,592.0
2.371670961380005,581.0
2.376082181930542,578.0
2.3797359466552734,578.0
2.3857059478759766,579.0
2.390162229537964,577.0
2.3963451385498047,584.0
2.402862071990967,582.0
2.407569169998169,575.0
2.4117848873138428,579.0
2.415700912475586,587.0
2.4196181297302246,592.0
2.4233908653259277,588.0
2.4303009510040283,590.0
2.4349591732025146,580.0
2.438839912414551,581.0
2.443289041519165,587.0
2.4469239711761475,586.0
2.4512948989868164,584.0
2.4549460411071777,579.0
2.4590189456939697,571.0
2.4626102447509766,574.0
2.4686079025268555,570.0
2.473012924194336,572.0
2.479372024536133,576.0
2.4855401515960693,574.0
2.490234136581421,581.0
2.496649980545044,582.0
2.5009689331054688,587.0
2.504668951034546,580.0
2.508786201477051,578.0
2.5125269889831543,577.0
2.5187480449676514,553.0
2.5231149196624756,582.0
2.5298209190368652,596.0
2.534290075302124,564.0
2.5381970405578613,571.0
2.5424160957336426,572.0
2.546069860458374,575.0
2.5522429943084717,575.0
2.556952953338623,564.0
2.5610909461975098,559.0
2.5650391578674316,580.0
2.5715620517730713,578.0
2.576004981994629,582.0
2.5796661376953125,580.0
2.583745002746582,593.0
2.5876221656799316,588.0
2.5940568447113037,583.0
2.5985660552978516,583.0
2.602609157562256,597.0
2.6064000129699707,584.0
2.6131250858306885,583.0
2.617604970932007,575.0
2.6211249828338623,558.0
2.627689838409424,574.0
2.632021903991699,578.0
2.6390371322631836,582.0
2.643401861190796,584.0
2.646994113922119,587.0
2.651049852371216,583.0
2.6546599864959717,588.0
2.661491870880127,587.0
2.667396068572998,583.0
2.6711301803588867,583.0
2.67578387260437,586.0
2.6794722080230713,590.0
2.6859681606292725,594.0
2.6904749870300293,594.0
2.694675922393799,580.0
2.6985819339752197,577.0
2.7026140689849854,584.0
2.7064719200134277,586.0
2.7132248878479004,576.0
2.717729091644287,551.0
2.7212448120117188,581.0
2.727729082107544,598.0
2.732213020324707,589.0
2.7367711067199707,593.0
2.740903854370117,587.0
2.7450520992279053,592.0
2.7489352226257324,585.0
2.7529311180114746,579.0
2.7566730976104736,602.0
2.763512134552002,596.0
2.76829195022583,586.0
2.7721240520477295,575.0
2.776242971420288,579.0
2.7802071571350098,567.0
2.7844860553741455,560.0
2.7883141040802,569.0
2.7925779819488525,577.0
2.796420097351074,553.0
2.802833080291748,584.0
2.807324171066284,596.0
2.8114919662475586,595.0
2.8153698444366455,590.0
2.822265148162842,588.0
2.8270909786224365,590.0
2.8307671546936035,586.0
2.8353829383850098,600.0
2.839116096496582,592.0
2.846484899520874,582.0
2.8508899211883545,587.0
2.8545849323272705,584.0
2.8592779636383057,582.0
2.86296010017395,588.0
2.8675620555877686,590.0
2.8714191913604736,583.0
2.8778700828552246,583.0
2.8822572231292725,593.0
2.8862850666046143,592.0
2.8908300399780273,566.0
2.8947150707244873,595.0
2.898409843444824,589.0
2.9028332233428955,584.0
2.906632900238037,596.0
2.913522958755493,581.0
2.9182682037353516,585.0
2.921861171722412,584.0
2.9259860515594482,565.0
2.929694890975952,582.0
2.9363930225372314,578.0
2.940984010696411,576.0
2.9456470012664795,577.0
2.952270984649658,580.0
2.956674098968506,583.0
2.963332176208496,586.0
2.967642068862915,584.0
2.971367835998535,574.0
2.9784140586853027,559.0
2.9855568408966064,579.0
2.9904098510742188,573.0
2.994536876678467,583.0
2.998491048812866,587.0
3.0067760944366455,576.0
3.015038013458252,571.0
3.0191779136657715,572.0
3.0236830711364746,571.0
3.0276389122009277,568.0
3.0321390628814697,573.0
3.039858818054199,580.0
3.0467910766601562,552.0
3.0514988899230957,581.0
3.055131196975708,591.0
3.0591862201690674,594.0
3.0627849102020264,595.0
3.067039966583252,588.0
3.070720911026001,586.0
3.0771608352661133,583.0
3.08187198638916,604.0
3.0860390663146973,597.0
3.08984112739563,564.0
3.0967750549316406,586.0
3.1014010906219482,589.0
3.1052300930023193,588.0
3.1094961166381836,590.0
3.1132469177246094,587.0
3.117388963699341,585.0
3.1210811138153076,581.0
3.125300884246826,589.0
3.1289610862731934,596.0
3.1351258754730225,595.0
3.1399381160736084,594.0
3.1466119289398193,576.0
3.151214122772217,583.0
3.154994249343872,586.0
3.159158945083618,575.0
3.1629350185394287,580.0
3.1672141551971436,584.0
3.1709301471710205,581.0
3.177030086517334,579.0
3.1816470623016357,587.0
3.1883339881896973,579.0
3.192815065383911,572.0
3.1966559886932373,578.0
3.200958013534546,581.0
3.204638957977295,587.0
3.2091708183288574,598.0
3.212925910949707,590.0
3.218932867050171,580.0
3.2234668731689453,584.0
3.229732036590576,591.0
3.235931158065796,582.0
3.240370988845825,577.0
3.2442500591278076,584.0
3.2481510639190674,579.0
3.254521131515503,567.0
3.260490894317627,578.0
3.2650210857391357,576.0
3.271644115447998,578.0
3.2760980129241943,581.0
3.2797670364379883,582.0
3.2840230464935303,589.0
3.2877869606018066,584.0
3.294053077697754,588.0
3.2987828254699707,589.0
3.3028299808502197,588.0
3.30668306350708,574.0
3.3135569095611572,588.0
3.3176181316375732,595.0
3.3218789100646973,588.0
3.326047897338867,587.0
3.329754114151001,582.0
3.3358869552612305,580.0
3.340290069580078,577.0
3.3465731143951416,579.0
3.3507370948791504,586.0
3.3542110919952393,578.0
3.3602521419525146,583.0
3.3641440868377686,589.0
3.3707592487335205,593.0
3.3768959045410156,591.0
3.3808820247650146,590.0
3.3879640102386475,590.0
3.392441987991333,578.0
3.3960931301116943,596.0
3.4022319316864014,605.0
3.406632900238037,592.0
3.4129140377044678,572.0
3.4172661304473877,556.0
3.4208288192749023,580.0
3.4269120693206787,576.0
3.4313530921936035,584.0
3.4376518726348877,589.0
3.443855047225952,562.0
3.448822021484375,578.0
3.4530348777770996,595.0
3.456929922103882,598.0
3.4635140895843506,601.0
3.4678781032562256,575.0
3.4717519283294678,593.0
3.4757559299468994,593.0
3.4792869091033936,600.0
3.483712911605835,595.0
3.4874422550201416,585.0
3.493661880493164,569.0
3.4981679916381836,588.0
3.5044970512390137,582.0
3.510723114013672,587.0
3.515087127685547,584.0
3.5214550495147705,585.0
3.525804042816162,564.0
3.529547929763794,590.0
3.534026861190796,589.0
3.537698984146118,600.0
3.5438990592956543,594.0
3.5483298301696777,606.0
3.5545918941497803,599.0
3.5608890056610107,587.0
3.5654520988464355,606.0
3.569654941558838,602.0
3.5738601684570312,590.0
3.5780138969421387,587.0
3.581852912902832,587.0
3.588334083557129,588.0
3.5927181243896484,592.0
3.5964601039886475,587.0
3.6005730628967285,591.0
3.604188919067383,585.0
3.610295057296753,590.0
3.614816904067993,591.0
3.621211051940918,590.0
3.625488042831421,591.0
3.6291329860687256,590.0
3.6352198123931885,585.0
3.6392428874969482,596.0
3.64634108543396,595.0
3.6507749557495117,585.0
3.6543569564819336,583.0
3.660382032394409,565.0
3.664910078048706,555.0
3.6716442108154297,578.0
3.6762349605560303,582.0
3.679975986480713,585.0
3.6843020915985107,583.0
3.6880440711975098,585.0
3.6921870708465576,591.0
3.6958930492401123,594.0
3.702122926712036,590.0
3.706663131713867,592.0
3.7129781246185303,592.0
3.7173821926116943,587.0
3.7210030555725098,599.0
3.7273130416870117,598.0
3.7321090698242188,592.0
3.736098051071167,592.0
3.7399790287017822,583.0
3.747075080871582,583.0
3.751068115234375,582.0
3.755174160003662,583.0
3.7596559524536133,568.0
3.7633378505706787,579.0
3.7674059867858887,586.0
3.7710280418395996,568.0
3.7771592140197754,591.0
3.781662940979004,588.0
3.7881839275360107,589.0
3.7928519248962402,586.0
3.796476125717163,585.0
3.8006720542907715,602.0
3.804366111755371,588.0
3.810535192489624,587.0
3.8148248195648193,571.0
3.8214571475982666,585.0
3.82602596282959,582.0
3.8298091888427734,582.0
3.8341622352600098,568.0
3.8378679752349854,582.0
3.842149019241333,592.0
3.8458759784698486,600.0
3.852174997329712,595.0
3.8567919731140137,584.0
3.86340594291687,589.0
3.867949962615967,595.0
3.8717470169067383,600.0
3.8760769367218018,609.0
3.879734992980957,610.0
3.886070966720581,599.0
3.890829086303711,590.0
3.894866943359375,587.0
3.898815870285034,589.0
3.903163194656372,570.0
3.9069271087646484,594.0
3.9136979579925537,590.0
3.918360948562622,591.0
3.9221980571746826,599.0
3.9265849590301514,591.0
3.930191993713379,600.0
3.934286117553711,599.0
3.937932014465332,595.0
3.944216012954712,600.0
3.948828935623169,595.0
3.9529340267181396,603.0
3.9568440914154053,604.0
3.9634921550750732,593.0
3.967798948287964,584.0
3.9713997840881348,587.0
3.9755918979644775,581.0
3.9793899059295654,591.0
3.9855809211730957,601.0
3.990088939666748,594.0
3.997025966644287,579.0
4.00144100189209,593.0
4.005117893218994,595.0
4.009351968765259,597.0
4.013123035430908,594.0
4.017405033111572,600.0
4.021044015884399,584.0
4.027342081069946,602.0
4.032066106796265,601.0
4.038617134094238,595.0
4.043095111846924,588.0
4.046576023101807,583.0
4.0509889125823975,583.0
4.054718017578125,577.0
4.05901312828064,585.0
4.062481164932251,580.0
4.068615913391113,585.0
4.072979927062988,563.0
4.079604864120483,594.0
4.086082935333252,595.0
4.090716123580933,595.0
4.094834089279175,596.0
4.098742961883545,595.0
4.102994918823242,597.0
4.106911897659302,590.0
4.113426208496094,610.0
4.117866039276123,599.0
4.1213600635528564,604.0
4.1278650760650635,594.0
4.13503623008728,598.0
4.139681100845337,596.0
4.143972158432007,601.0
4.147611141204834,601.0
4.154970169067383,596.0
4.159585952758789,605.0
4.163359880447388,604.0
4.167371988296509,603.0
4.171041011810303,595.0
4.175538063049316,602.0
4.179096937179565,596.0
4.185560941696167,596.0
4.190108060836792,604.0
4.196954011917114,600.0
4.201614141464233,594.0
4.205162048339844,588.0
4.210187911987305,584.0
4.214117050170898,582.0
4.221536874771118,583.0
4.226422071456909,589.0
4.230135917663574,576.0
4.234421014785767,592.0
4.238472938537598,602.0
4.2427918910980225,609.0
4.246728897094727,604.0
4.251782178878784,597.0
4.255549192428589,606.0
4.260704040527344,602.0
4.264679908752441,607.0
4.271884918212891,614.0
4.27665901184082,605.0
4.280465126037598,597.0
4.284773111343384,596.0
4.288796901702881,597.0
4.292834997177124,596.0
4.296683073043823,594.0
4.301479816436768,588.0
4.305209159851074,595.0
4.310445070266724,600.0
4.314049959182739,607.0
4.321512937545776,612.0
4.325717926025391,605.0
4.329460859298706,602.0
4.334306001663208,599.0
4.337864875793457,607.0
4.343292236328125,604.0
4.34701681137085,593.0
4.351763963699341,602.0
4.355457067489624,583.0
4.360133171081543,570.0
4.3638598918914795,587.0
4.368807077407837,592.0
4.372391939163208,583.0
4.3795859813690186,584.0
4.386013984680176,577.0
4.390514850616455,595.0
4.394413948059082,590.0
4.398213148117065,600.0
4.405487060546875,593.0
4.410598039627075,595.0
4.4141459465026855,570.0
4.421622037887573,591.0
4.425971984863281,599.0
4.429853916168213,601.0
4.434196949005127,586.0
4.4381139278411865,586.0
4.442440986633301,586.0
4.446399927139282,580.0
4.451562881469727,587.0
4.455546140670776,583.0
4.460139036178589,584.0
4.463649034500122,563.0
4.468631982803345,600.0
4.472124099731445,593.0
4.476070165634155,588.0
4.479825019836426,591.0
4.483947992324829,574.0
4.487669944763184,582.0
4.494789123535156,592.0
4.502143859863281,601.0
4.506526947021484,578.0
4.513823986053467,588.0
4.518742084503174,586.0
4.522619009017944,569.0
4.5269739627838135,568.0
4.530484914779663,588.0
4.535048007965088,594.0
4.5386528968811035,595.0
4.5437171459198,593.0
4.547325849533081,601.0
4.551906108856201,604.0
4.555704116821289,604.0
4.56299901008606,602.0
4.5676960945129395,599.0
4.571442127227783,593.0
4.575812101364136,579.0
4.579506158828735,592.0
4.586050987243652,603.0
4.591166973114014,599.0
4.595958948135376,593.0
4.602872133255005,592.0
4.6078269481658936,594.0
4.611793041229248,598.0
4.615674018859863,593.0
4.619676828384399,595.0
4.6235129833221436,607.0
4.630212068557739,595.0
4.635177850723267,611.0
4.639210939407349,604.0
4.646322965621948,604.0
4.650941848754883,607.0
4.654630184173584,599.0
4.658787965774536,619.0
4.66272497177124,624.0
4.669479131698608,601.0
4.673999071121216,600.0
4.678728818893433,589.0
4.685337066650391,600.0
4.689661979675293,610.0
4.6961870193481445,603.0
4.700487852096558,596.0
4.704171895980835,591.0
4.710353136062622,601.0
4.714667081832886,610.0
4.721184968948364,607.0
4.727698087692261,600.0
4.732274055480957,613.0
4.736320972442627,606.0
4.740108966827393,611.0
4.746741056442261,612.0
4.75141716003418,585.0
4.75501012802124,598.0
4.759212970733643,596.0
4.762833118438721,598.0
4.769001007080078,604.0
4.773895978927612,593.0
4.778249025344849,591.0
4.7819671630859375,607.0
4.788706064224243,605.0
4.793323993682861,611.0
4.797160863876343,605.0
4.801692008972168,609.0
4.805485010147095,607.0
4.810216903686523,621.0
4.813952922821045,607.0
4.818333864212036,618.0
4.82179594039917,614.0
4.825890064239502,611.0
4.829429864883423,604.0
4.835919141769409,608.0
4.8405139446258545,610.0
4.845139980316162,602.0
4.849106073379517,608.0
4.853205919265747,607.0
4.857160806655884,608.0
4.861450910568237,610.0
4.8654561042785645,609.0
4.870033025741577,594.0
4.873934030532837,615.0
4.878332138061523,601.0
4.882151126861572,610.0
4.886659145355225,586.0
4.890455961227417,622.0
4.894849061965942,621.0
4.898928165435791,599.0
4.9032909870147705,598.0
4.9075188636779785,593.0
4.91208291053772,595.0
4.918889999389648,599.0
4.923289060592651,599.0
4.930333852767944,598.0
4.934988021850586,593.0
4.938823938369751,603.0
4.942859888076782,586.0
4.946454048156738,604.0
4.95309591293335,603.0
4.960479021072388,600.0
4.965320825576782,600.0
4.972196102142334,606.0
4.976991891860962,614.0
4.981176137924194,609.0
4.988376140594482,604.0
4.993255853652954,597.0
4.996963977813721,598.0
5.001507997512817,584.0
5.005047082901001,602.0
5.009361028671265,609.0
5.01302695274353,585.0
5.017451047897339,609.0
5.021174907684326,610.0
5.027548789978027,595.0
5.032244920730591,618.0
5.036545991897583,608.0
5.04068922996521,614.0
5.044672966003418,607.0
5.048543930053711,603.0
5.055357217788696,608.0
5.060135126113892,605.0
5.064057111740112,589.0
5.071393013000488,595.0
5.075815916061401,592.0
5.079623222351074,588.0
5.083750009536743,595.0
5.087651014328003,571.0
5.094216823577881,596.0
5.09871506690979,602.0
5.103405952453613,600.0
5.1074018478393555,601.0
5.1113200187683105,604.0
5.115703105926514,605.0
5.11977219581604,599.0
5.123872995376587,594.0
5.128455877304077,608.0
5.132374048233032,606.0
5.136445999145508,603.0
5.140326023101807,602.0
5.147167921066284,592.0
5.151815176010132,587.0
5.155281066894531,596.0
5.1593358516693115,596.0
5.162889003753662,593.0
5.167053937911987,597.0
5.17058801651001,611.0
5.177842140197754,602.0
5.182785987854004,612.0
5.187805891036987,613.0
5.192700147628784,611.0
5.196383953094482,612.0
5.200703859329224,611.0
5.20516300201416,620.0
5.210603952407837,621.0
5.2151780128479,611.0
5.22302508354187,607.0
5.227046012878418,601.0
5.230485916137695,605.0
5.235112905502319,591.0
5.238725185394287,601.0
5.2431800365448,600.0
5.248031854629517,601.0
5.252964973449707,604.0
5.2605040073394775,597.0
5.265106916427612,601.0
5.269549131393433,595.0
5.273504018783569,603.0
5.280311107635498,592.0
5.284646034240723,600.0
5.288248062133789,601.0
5.292730093002319,588.0
5.296305179595947,579.0
5.30097508430481,577.0
5.304775953292847,583.0
5.309049129486084,597.0
5.3127601146698,598.0
5.3194191455841064,580.0
5.323904037475586,580.0
5.328373908996582,595.0
5.332066059112549,597.0
5.336038112640381,601.0
5.340170860290527,605.0
5.347156047821045,600.0
5.351914882659912,594.0
5.355520009994507,590.0
5.3597941398620605,590.0
5.363671064376831,594.0
5.3679258823394775,590.0
5.37169885635376,572.0
5.376430034637451,592.0
5.379963159561157,589.0
5.38435697555542,593.0
5.387986183166504,602.0
5.394399881362915,604.0
5.398822069168091,601.0
5.4055399894714355,612.0
5.410111904144287,606.0
5.413787126541138,608.0
5.4184370040893555,601.0
5.422106981277466,611.0
5.426537990570068,589.0
5.43116307258606,598.0
5.438525199890137,598.0
5.443043947219849,600.0
5.4474029541015625,595.0
5.455335855484009,592.0
5.459720849990845,597.0
5.463238000869751,598.0
5.4697980880737305,601.0
5.476883888244629,604.0
5.481684923171997,596.0
5.488541841506958,606.0
5.492926836013794,610.0
5.496474981307983,609.0
5.500709056854248,590.0
5.504555940628052,583.0
5.511001110076904,590.0
5.515409231185913,584.0
5.521958112716675,587.0
5.5261499881744385,575.0
5.530137062072754,575.0
5.5341949462890625,574.0
5.538055181503296,574.0
5.542273044586182,566.0
5.545957088470459,565.0
5.550413131713867,564.0
5.553868055343628,588.0
5.560266017913818,585.0
5.564871072769165,591.0
5.568994045257568,604.0
5.572541952133179,610.0
5.579426050186157,610.0
5.583933115005493,608.0
5.587625980377197,615.0
5.591825008392334,602.0
5.595777988433838,603.0
5.602272033691406,607.0
5.606647968292236,611.0
5.6132190227508545,597.0
5.617401123046875,570.0
5.621106147766113,567.0
5.625517129898071,586.0
5.628990888595581,586.0
5.635159969329834,561.0
5.639648914337158,549.0
5.646048069000244,562.0
5.650490999221802,588.0
5.654322147369385,578.0
5.6586549282073975,580.0
5.662338018417358,575.0
5.66903018951416,564.0
5.673562049865723,588.0
5.680147886276245,602.0
5.68477988243103,595.0
5.688337087631226,592.0
5.69248104095459,586.0
5.696183919906616,581.0
5.702868938446045,578.0
5.707345008850098,586.0
5.711858034133911,586.0
5.715708017349243,576.0
5.719741106033325,578.0
5.724205017089844,600.0
5.728554010391235,602.0
5.735306978225708,602.0
5.7398951053619385,604.0
5.743924856185913,596.0
5.747279167175293,626.0
5.751421928405762,643.0
5.755262851715088,633.0
5.759878158569336,629.0
5.763742923736572,629.0
5.768391847610474,607.0
5.7718000411987305,620.0
5.775882005691528,624.0
5.77932596206665,614.0
5.78579306602478,617.0
5.790075063705444,610.0
5.79681396484375,627.0
5.801380157470703,611.0
5.805192947387695,614.0
5.809026002883911,603.0
5.813148021697998,603.0
5.817718982696533,588.0
5.8216712474823,590.0
5.826772928237915,602.0
5.830281972885132,589.0
5.834850072860718,595.0
5.838387966156006,598.0
5.842568874359131,577.0
5.846181154251099,563.0
5.852892160415649,569.0
5.857640981674194,578.0
5.862185001373291,577.0
5.868906021118164,570.0
5.873502969741821,568.0
5.88006591796875,582.0
5.884865999221802,579.0
5.8885438442230225,584.0
5.892781019210815,582.0
5.896509170532227,573.0
5.902859926223755,582.0
5.9101550579071045,593.0
5.914849042892456,576.0
5.918884038925171,582.0
5.922410011291504,576.0
5.929826021194458,569.0
5.934081077575684,545.0
5.938143014907837,563.0
5.9422900676727295,548.0
5.946069002151489,564.0
5.950630187988281,558.0
5.954138994216919,555.0
5.960448980331421,550.0
5.964946985244751,559.0
5.9713780879974365,553.0
5.975602865219116,554.0
5.979373931884766,539.0
5.9858269691467285,544.0
5.990385055541992,562.0
5.994488000869751,547.0
5.998512029647827,546.0
6.00543999671936,516.0
6.010178089141846,539.0
6.013744115829468,538.0
6.018060922622681,545.0
6.022032022476196,542.0
6.026464939117432,540.0
6.0301549434661865,547.0
6.034619092941284,555.0
6.038194894790649,551.0
6.0424981117248535,551.0
6.04660701751709,548.0
6.051311016082764,543.0
6.055201053619385,550.0
6.059715032577515,552.0
6.063293218612671,559.0
6.067476987838745,550.0
6.071975231170654,548.0
6.078459024429321,544.0
6.085705995559692,547.0
6.090328931808472,549.0
6.094413995742798,551.0
6.098325967788696,555.0
6.105500936508179,552.0
6.1103410720825195,534.0
6.114492177963257,553.0
6.121381044387817,562.0
6.125590085983276,565.0
6.129394054412842,554.0
6.136279106140137,544.0
6.140772104263306,548.0
6.145272970199585,557.0
6.148930072784424,539.0
6.153033018112183,527.0
6.157092094421387,526.0
6.161509990692139,528.0
6.165385961532593,537.0
6.170148134231567,537.0
6.1748669147491455,525.0
6.178505897521973,529.0
6.182258129119873,528.0
6.186749219894409,546.0
6.190624952316284,552.0
6.195904016494751,546.0
6.2013890743255615,551.0
6.2051591873168945,545.0
6.209460973739624,543.0
6.213263988494873,550.0
6.218092918395996,556.0
6.221650838851929,554.0
6.226480007171631,545.0
6.230026006698608,542.0
6.234743118286133,551.0
6.238348960876465,546.0
6.24346399307251,553.0
6.247035026550293,555.0
6.251745939254761,559.0
6.256338119506836,557.0
6.263849973678589,557.0
6.268876075744629,563.0
6.272434949874878,546.0
6.279912948608398,562.0
6.284658193588257,570.0
6.288211822509766,571.0
6.292452096939087,554.0
6.296156883239746,574.0
6.302812814712524,542.0
6.307303190231323,553.0
6.311794996261597,555.0
6.31601619720459,555.0
6.319849967956543,550.0
6.323790073394775,554.0
6.3306968212127686,550.0
6.338131904602051,547.0
6.3428590297698975,548.0
6.346407890319824,547.0
6.3504180908203125,542.0
6.35404109954834,539.0
6.360973119735718,535.0
6.365594148635864,532.0
6.370537996292114,515.0
6.377641916275024,536.0
6.382323980331421,531.0
6.38700008392334,531.0
6.393947124481201,510.0
6.39854621887207,507.0
6.405105113983154,510.0
6.409692049026489,509.0
6.413300037384033,505.0
6.418200969696045,514.0
6.421818017959595,506.0
6.426355838775635,512.0
6.430012226104736,514.0
6.434030055999756,510.0
6.438133001327515,502.0
6.443334102630615,502.0
6.446945905685425,510.0
6.451725959777832,516.0
6.455498933792114,522.0
6.459604024887085,505.0
6.46318507194519,507.0
6.467448949813843,503.0
6.471137046813965,499.0
6.4778218269348145,495.0
6.485159158706665,507.0
6.48925518989563,504.0
6.496483087539673,500.0
6.500936985015869,499.0
6.504711866378784,509.0
6.5090107917785645,511.0
6.512754917144775,511.0
6.516844987869263,505.0
6.520478963851929,513.0
6.526801109313965,511.0
6.531400918960571,521.0
6.538128137588501,503.0
6.54246711730957,511.0
6.5459959506988525,505.0
6.552525997161865,492.0
6.557030200958252,521.0
6.563392877578735,513.0
6.567719221115112,512.0
6.571367025375366,516.0
6.575857162475586,519.0
6.579507827758789,524.0
6.58391809463501,529.0
6.587538957595825,507.0
6.593847036361694,522.0
6.598566055297852,513.0
6.602879047393799,526.0
6.60655403137207,532.0
6.613565921783447,535.0
6.6177451610565186,510.0
6.621348142623901,516.0
6.627840042114258,507.0
6.632577896118164,514.0
6.6368088722229,519.0
6.643275022506714,528.0
6.64734411239624,516.0
6.654154062271118,493.0
6.66068696975708,515.0
6.665180921554565,515.0
6.671912908554077,529.0
6.676426887512207,531.0
6.680158853530884,528.0
6.684017181396484,525.0
6.68813419342041,519.0
6.692530870437622,539.0
6.696516036987305,534.0
6.700717926025391,532.0
6.704256057739258,515.0
6.710493803024292,516.0
6.714960098266602,525.0
6.721373796463013,524.0
6.725511074066162,534.0
6.729307174682617,527.0
6.733605146408081,516.0
6.737279891967773,525.0
6.74355411529541,532.0
6.7479798793792725,536.0
6.754667043685913,527.0
6.758997917175293,519.0
6.762662172317505,522.0
6.7690041065216064,528.0
6.773591041564941,540.0
6.777523994445801,521.0
6.781276226043701,520.0
6.787879943847656,522.0
6.794109106063843,519.0
6.798688888549805,519.0
6.80246901512146,522.0
6.806247234344482,499.0
6.812978982925415,519.0
6.817464113235474,521.0
6.8209569454193115,535.0
6.827224969863892,541.0
6.831563949584961,530.0
6.838024854660034,528.0
6.8421790599823,522.0
6.845724821090698,524.0
6.852046966552734,536.0
6.856370210647583,545.0
6.862684011459351,531.0
6.868983030319214,518.0
6.873288869857788,519.0
6.879853963851929,519.0
6.883994102478027,519.0
6.887611150741577,519.0
6.8938469886779785,520.0
6.898231029510498,526.0
6.9048309326171875,520.0
6.908969879150391,531.0
6.912474155426025,531.0
6.9187891483306885,527.0
6.92336893081665,528.0
6.9298200607299805,522.0
6.934033155441284,527.0
6.937596082687378,536.0
6.943812131881714,538.0
6.948162078857422,533.0
6.9547340869903564,532.0
6.958995819091797,530.0
6.962615013122559,503.0
6.9689390659332275,520.0
6.9734461307525635,528.0
6.977365016937256,531.0
6.980785131454468,531.0
6.987683057785034,545.0
6.994055986404419,537.0
6.998572111129761,543.0
7.002395153045654,540.0
7.00620698928833,533.0
7.0128960609436035,537.0
7.017459869384766,538.0
7.021142959594727,546.0
7.027579069137573,549.0
7.032098054885864,532.0
7.035927057266235,533.0
7.039714097976685,530.0
7.046551942825317,506.0
7.0511391162872314,532.0
7.054664850234985,509.0
7.05867600440979,522.0
7.0622289180755615,519.0
7.068526029586792,529.0
7.073063850402832,522.0
7.0795738697052,517.0
7.083630084991455,503.0
7.0872719287872314,523.0
7.0937440395355225,511.0
7.098241090774536,519.0
7.104859113693237,516.0
7.109029054641724,525.0
7.112565994262695,514.0
7.118833065032959,514.0
7.123126983642578,511.0
7.129767179489136,508.0
7.1341118812561035,511.0
7.137621879577637,513.0
7.144155025482178,521.0
7.148527145385742,527.0
7.154892921447754,525.0
7.159285068511963,517.0
7.162802219390869,526.0
7.169183969497681,526.0
7.1736061573028564,515.0
7.177710056304932,512.0
7.181442022323608,524.0
7.188149929046631,537.0
7.192767858505249,515.0
7.196386098861694,508.0
7.202890872955322,503.0
7.20727014541626,509.0
7.213824033737183,502.0
7.2181549072265625,494.0
7.221667051315308,517.0
7.225901126861572,513.0
7.229812860488892,518.0
7.233719110488892,525.0
7.237632989883423,537.0
7.244339942932129,532.0
7.248903036117554,530.0
7.253268003463745,527.0
7.257160902023315,532.0
7.261066913604736,539.0
7.264895915985107,528.0
7.271363973617554,500.0
7.276128053665161,491.0
7.279623031616211,508.0
7.2860260009765625,504.0
7.290438175201416,486.0
7.2944371700286865,483.0
7.298259973526001,481.0
7.305383205413818,479.0
7.310002088546753,474.0
7.313462972640991,438.0
7.318127155303955,472.0
7.32181715965271,480.0
7.3259382247924805,473.0
7.329651832580566,454.0
7.335955858230591,469.0
7.3408660888671875,505.0
7.345380067825317,503.0
7.3520188331604,483.0
7.356503009796143,470.0
7.363240003585815,493.0
7.367754936218262,515.0
7.371355056762695,523.0
7.375427007675171,521.0
7.3796000480651855,499.0
7.3840718269348145,534.0
7.387815952301025,547.0
7.39284610748291,530.0
7.396409034729004,527.0
7.402827978134155,537.0
7.40746808052063,542.0
7.411492109298706,545.0
7.415318012237549,549.0
7.421892166137695,544.0
7.4261980056762695,516.0
7.429704904556274,538.0
7.4339470863342285,538.0
7.437530040740967,529.0
7.444114923477173,536.0
7.448961973190308,539.0
7.4533491134643555,521.0
7.45737099647522,528.0
7.461284160614014,535.0
7.465317010879517,538.0
7.469461917877197,540.0
7.473404169082642,529.0
7.479944944381714,525.0
7.484596014022827,521.0
7.488179922103882,519.0
7.492423057556152,526.0
7.495929956436157,530.0
7.502350091934204,515.0
7.506982088088989,501.0
7.513477087020874,505.0
7.517812967300415,508.0
7.521456003189087,512.0
7.5259199142456055,515.0
7.529550075531006,509.0
7.536125898361206,503.0
7.540732145309448,523.0
7.54531717300415,520.0
7.552061080932617,528.0
7.556658029556274,516.0
7.563122987747192,518.0
7.567536115646362,514.0
7.571116924285889,520.0
7.577548980712891,531.0
7.582089900970459,514.0
7.586273908615112,492.0
7.5901689529418945,504.0
7.594118118286133,492.0
7.597856044769287,471.0
7.604984998703003,496.0
7.609559059143066,502.0
7.613289833068848,494.0
7.6172661781311035,522.0
7.620834112167358,515.0
7.627278089523315,503.0
7.631834983825684,507.0
7.636003017425537,513.0
7.6397271156311035,517.0
7.646512031555176,524.0
7.651217222213745,530.0
7.654752016067505,536.0
7.65880012512207,518.0
7.662684202194214,508.0
7.666844844818115,470.0
7.67061185836792,491.0
7.677290916442871,500.0
7.681866884231567,486.0
7.686077117919922,486.0
7.689938068389893,496.0
7.696595907211304,514.0
7.701306104660034,487.0
7.7049720287323,488.0
7.7090559005737305,504.0
7.712615013122559,511.0
7.719019889831543,517.0
7.723617076873779,516.0
7.730159044265747,524.0
7.734918117523193,533.0
7.738513231277466,532.0
7.742877006530762,532.0
7.746756076812744,523.0
7.75095009803772,522.0
7.754518985748291,529.0
7.7587690353393555,537.0
7.762378931045532,534.0
7.768730163574219,535.0
7.7730700969696045,553.0
7.779690980911255,551.0
7.784104824066162,542.0
7.78789496421814,533.0
7.791769981384277,540.0
7.795614957809448,538.0
7.801864862442017,547.0
7.805862188339233,563.0
7.812839031219482,564.0
7.816987037658691,544.0
7.820559024810791,519.0
7.826995849609375,500.0
7.830887794494629,522.0
7.837798118591309,515.0
7.8418848514556885,537.0
7.845441102981567,515.0
7.852156162261963,510.0
7.856722831726074,524.0
7.8612611293792725,532.0
7.865154981613159,525.0
7.8718860149383545,499.0
7.876335144042969,510.0
7.879995107650757,513.0
7.884285926818848,529.0
7.887963056564331,531.0
7.892061948776245,522.0
7.895633220672607,525.0
7.901949167251587,514.0
7.906347990036011,533.0
7.912905931472778,533.0
7.917062044143677,533.0
7.920615196228027,523.0
7.927000045776367,519.0
7.931426048278809,532.0
7.93779993057251,517.0
7.944414854049683,535.0
7.949037075042725,538.0
7.952919960021973,542.0
7.956692934036255,543.0
7.963552951812744,543.0
7.9679601192474365,539.0
7.971557140350342,529.0
7.9756059646606445,519.0
7.979166030883789,497.0
7.985485076904297,509.0
7.99006199836731,502.0
7.997203826904297,506.0
8.001688957214355,515.0
8.005496978759766,507.0
8.010020971298218,487.0
8.013575077056885,500.0
8.017754077911377,476.0
8.021363019943237,515.0
8.025475978851318,525.0
8.02927303314209,529.0
8.036257982254028,524.0
8.040647983551025,533.0
8.044824123382568,537.0
8.048866033554077,534.0
8.05285096168518,533.0
8.056711912155151,520.0
8.063185214996338,511.0
8.067821025848389,503.0
8.071262836456299,513.0
8.075367212295532,504.0
8.079012155532837,500.0
8.085481882095337,523.0
8.089982986450195,516.0
8.09677004814148,504.0
8.100988149642944,492.0
8.104522943496704,498.0
8.111247062683105,513.0
8.118481159210205,511.0
8.122993230819702,504.0
8.12992787361145,498.0
8.134392023086548,502.0
8.137984991073608,505.0
8.14487910270691,501.0
8.152054071426392,452.0
8.156519174575806,491.0
8.163376092910767,490.0
8.167875051498413,491.0
8.17148494720459,486.0
8.175577163696289,494.0
8.179280042648315,492.0
8.185948133468628,487.0
8.191019058227539,494.0
8.195442914962769,501.0
8.201948881149292,505.0
8.20687198638916,487.0
8.211036205291748,495.0
8.215188980102539,500.0
8.221999168395996,495.0
8.226975917816162,496.0
8.230804920196533,490.0
8.235749006271362,487.0
8.240199089050293,490.0
8.24434208869934,503.0
8.248498916625977,504.0
8.25303602218628,493.0
8.257116794586182,504.0
8.26094102859497,496.0
8.26500916481018,504.0
8.269077062606812,507.0
8.272850036621094,499.0
8.27929401397705,490.0
8.28540587425232,457.0
8.289950847625732,492.0
8.29619288444519,492.0
8.302309036254883,473.0
8.306770086288452,470.0
8.312954187393188,444.0
8.319072008132935,446.0
8.323378086090088,426.0
8.327627897262573,401.0
8.3313729763031,427.0
8.337785959243774,445.0
8.34227204322815,436.0
8.345957040786743,413.0
8.352041959762573,407.0
8.356503963470459,420.0
8.363224983215332,440.0
8.36770510673523,433.0
8.371463060379028,452.0
8.375711917877197,469.0
8.379532098770142,456.0
8.385607242584229,473.0
8.390551090240479,481.0
8.394911050796509,497.0
8.401535987854004,492.0
8.405786991119385,501.0
8.41262698173523,505.0
8.419127941131592,505.0
8.423885107040405,499.0
8.428076028823853,512.0
8.431950092315674,530.0
8.43850588798523,522.0
8.44294023513794,529.0
8.446556091308594,523.0
8.450765132904053,530.0
8.45447301864624,539.0
8.458709955215454,531.0
8.462249994277954,532.0
8.468157052993774,521.0
8.472357988357544,523.0
8.478998899459839,521.0
8.48530912399292,528.0
8.48990797996521,530.0
8.496572017669678,537.0
8.501184940338135,540.0
8.504941940307617,543.0
8.509092092514038,546.0
8.512640953063965,548.0
8.518701076507568,541.0
8.523175954818726,543.0
8.529313087463379,555.0
8.535526037216187,563.0
8.540110111236572,563.0
8.54638409614563,558.0
8.55050802230835,556.0
8.554090023040771,552.0
8.559947967529297,557.0
8.564010858535767,564.0
8.570955991744995,564.0
8.577051162719727,571.0
8.5815269947052,564.0
8.58779001235962,568.0
8.59395980834961,568.0
8.598437070846558,558.0
8.602293968200684,553.0
8.605874061584473,522.0
8.612405061721802,511.0
8.618624925613403,500.0
8.623113870620728,496.0
8.629301071166992,503.0
8.635361909866333,563.0
8.639704942703247,534.0
8.645890951156616,433.0
8.65203309059143,476.0
8.656325101852417,515.0
8.662476062774658,541.0
8.668539047241211,516.0
8.672435998916626,547.0
8.679091930389404,567.0
8.685181856155396,579.0
8.689127206802368,601.0
8.69572401046753,594.0
8.701767206192017,542.0
8.706270933151245,576.0
8.712520837783813,555.0
8.718921899795532,563.0
8.723623991012573,603.0
8.727940082550049,578.0
8.732187032699585,531.0
8.736134052276611,506.0
8.739996910095215,550.0
8.746459007263184,544.0
8.75086522102356,547.0
8.75476598739624,543.0
8.759139060974121,546.0
8.763103008270264,554.0
8.767420053482056,528.0
8.7710120677948,552.0
8.777150869369507,558.0
8.781532049179077,526.0
8.78790807723999,512.0
8.792134046554565,528.0
8.79575800895691,579.0
8.801797151565552,574.0
8.805803060531616,522.0
8.812327861785889,505.0
8.818427085876465,524.0
8.822475910186768,501.0
8.828927040100098,528.0
8.835257053375244,522.0
8.840147972106934,509.0
8.844237089157104,494.0
8.848179817199707,474.0
8.854743003845215,456.0
8.859317064285278,413.0
8.863075017929077,387.0
8.867493152618408,395.0
8.871250867843628,391.0
8.877426862716675,393.0
8.882002830505371,438.0
8.88601016998291,351.0
8.889899015426636,255.0
8.89662504196167,317.0
8.900935888290405,365.0
8.904633045196533,383.0
8.908777952194214,390.0
8.912495136260986,312.0
8.918633937835693,275.0
8.92301893234253,305.0
8.929301023483276,349.0
8.93532109260559,392.0
8.939199924468994,417.0
8.945625066757202,316.0
8.951659917831421,248.0
8.955773115158081,312.0
8.962507963180542,364.0
8.968753099441528,332.0
8.973315000534058,333.0
8.979375123977661,330.0
8.985438823699951,333.0
8.99023985862732,303.0
8.994386196136475,315.0
8.998203039169312,320.0
9.004954099655151,305.0
9.009273052215576,305.0
9.012952089309692,312.0
9.017212152481079,283.0
9.020933151245117,269.0
9.027315855026245,252.0
9.032015085220337,281.0
9.038322925567627,213.0
9.042850971221924,171.0
9.046610832214355,242.0
9.051022052764893,229.0
9.054781913757324,178.0
9.05859088897705,162.0
9.062710046768188,143.0
9.068997144699097,150.0
9.073490142822266,146.0
9.079779148101807,144.0
9.083976984024048,156.0
9.087594032287598,158.0
9.093692064285278,163.0
9.098226070404053,154.0
9.104581117630005,137.0
9.108812093734741,96.0
9.112466096878052,95.0
9.118560075759888,102.0
9.12312912940979,119.0
9.129372119903564,120.0
9.135440111160278,108.0
9.139997959136963,94.0
9.146066904067993,73.0
9.152361869812012,74.0
9.156690835952759,71.0
9.160418033599854,65.0
9.163918018341064,80.0
9.167855024337769,92.0
9.171410083770752,115.0
9.17540192604065,111.0
9.178963899612427,95.0
9.184921026229858,70.0
9.189176082611084,62.0
9.195863962173462,88.0
9.199979066848755,117.0
9.203579187393188,78.0
9.209426879882812,67.0
9.213303089141846,53.0
9.217405080795288,47.0
9.221020221710205,53.0
9.227474212646484,41.0
9.232247114181519,58.0
9.236125946044922,66.0
9.24046516418457,41.0
9.24439001083374,42.0
9.248217105865479,38.0
9.254406213760376,46.0
9.26057505607605,55.0
9.265082120895386,50.0
9.268921136856079,36.0
9.272543907165527,35.0
9.27901577949524,37.0
9.285140991210938,39.0
9.289716005325317,39.0
9.296034097671509,36.0
9.300243854522705,31.0
9.30386996269226,39.0
9.309875011444092,38.0
9.313894033432007,36.0
9.31808090209961,37.0
9.3215970993042,35.0
9.327569007873535,41.0
9.332027196884155,43.0
9.335805892944336,48.0
9.339637041091919,82.0
9.34593415260315,65.0
9.351989030838013,92.0
9.356374979019165,103.0
9.362600803375244,95.0
9.368660926818848,95.0
9.373042821884155,90.0
9.379268169403076,63.0
9.385255098342896,89.0
9.38965916633606,72.0
9.395766973495483,41.0
9.40186595916748,39.0
9.405791997909546,38.0
9.41224217414856,43.0
9.418325901031494,58.0
9.422437191009521,76.0
9.429276943206787,38.0
9.435614824295044,39.0
9.44016408920288,40.0
9.446294069290161,54.0
9.450377941131592,76.0
9.453897953033447,76.0
9.46000599861145,59.0
9.464205980300903,59.0
9.47088885307312,60.0
9.477042198181152,98.0
9.481501817703247,122.0
9.487786054611206,108.0
9.491965055465698,97.0
9.495625019073486,112.0
9.501690149307251,98.0
9.505753993988037,123.0
9.51236081123352,125.0
9.518479108810425,158.0
9.522972106933594,178.0
9.529123067855835,161.0
9.535181045532227,145.0
9.539760112762451,141.0
9.546020984649658,178.0
9.552129030227661,177.0
9.556535959243774,135.0
9.562654972076416,126.0
9.56872010231018,141.0
9.57319712638855,106.0
9.579401016235352,102.0
9.585596084594727,81.0
9.59020209312439,48.0
9.594045877456665,65.0
9.597877025604248,64.0
9.60413408279419,126.0
9.610151052474976,104.0
9.614552974700928,77.0
9.620824098587036,36.0
9.627005100250244,33.0
9.631503105163574,67.0
9.637657165527344,64.0
9.641767024993896,55.0
9.645330905914307,81.0
9.65129280090332,124.0
9.655229091644287,151.0
9.65944218635559,86.0
9.662914991378784,72.0
9.668820858001709,67.0
9.673287153244019,139.0
9.679507970809937,180.0
9.683650970458984,191.0
9.687170028686523,161.0
9.693121910095215,87.0
9.697041034698486,103.0
9.701212167739868,119.0
9.704771995544434,202.0
9.709089040756226,260.0
9.713004112243652,157.0
9.717373847961426,93.0
9.721169233322144,68.0
9.727145910263062,89.0
9.731508016586304,122.0
9.737920999526978,55.0
9.744086980819702,33.0
9.748565912246704,43.0
9.754844903945923,55.0
9.759026050567627,112.0
9.762549877166748,41.0
9.768562078475952,36.0
9.772934198379517,40.0
9.779246091842651,94.0
9.785360097885132,39.0
9.789825916290283,36.0
9.79606294631958,43.0
9.802201986312866,58.0
9.806697845458984,36.0
9.812816143035889,37.0
9.817035913467407,43.0
9.820707082748413,114.0
9.82673192024231,40.0
9.830869913101196,39.0
9.837556838989258,37.0
9.843648910522461,55.0
9.848201990127563,111.0
9.854503154754639,102.0
9.860592126846313,109.0
9.865126132965088,87.0
9.871354103088379,141.0
9.875513076782227,166.0
9.879088163375854,114.0
9.885083198547363,156.0
9.889611005783081,313.0
9.895946979522705,275.0
9.902085065841675,55.0
9.906621932983398,40.0
9.91286301612854,42.0
9.917041063308716,116.0
9.920634984970093,269.0
9.926712036132812,191.0
9.930770874023438,85.0
9.937167167663574,82.0
9.943241834640503,114.0
9.947250127792358,108.0
9.951420068740845,108.0
9.954959154129028,100.0
9.959002017974854,118.0
9.962591886520386,134.0
9.968621015548706,75.0
9.97312307357788,38.0
9.97942590713501,75.0
9.983620166778564,197.0
9.987332105636597,71.0
9.993417978286743,44.0
9.998109817504883,34.0
10.004703998565674,35.0
10.011061906814575,43.0
10.015751123428345,40.0
10.019656896591187,33.0
10.023612022399902,34.0
10.029924154281616,33.0
10.0342698097229,34.0
10.03794813156128,39.0
10.041996002197266,33.0
10.04551386833191,33.0
10.051799058914185,32.0
10.056291103363037,37.0
10.062488079071045,37.0
10.068656206130981,42.0
10.0730299949646,39.0
10.079071044921875,83.0
10.085200071334839,151.0
10.089555978775024,166.0
10.095829963684082,82.0
10.102002143859863,152.0
10.106831073760986,295.0
10.113784074783325,186.0
10.118460178375244,224.0
10.12283992767334,276.0
10.129352807998657,211.0
10.135509014129639,195.0
10.140131950378418,251.0
10.14623212814331,227.0
10.152395009994507,348.0
10.156798839569092,401.0
10.162868022918701,183.0
10.16727590560913,113.0
10.17094111442566,68.0
10.177106142044067,101.0
10.18174695968628,341.0
10.188188076019287,217.0
10.192471981048584,60.0
10.196112155914307,147.0
10.200237035751343,262.0
10.203892946243286,227.0
10.209985971450806,106.0
10.214044094085693,142.0
10.220654010772705,235.0
10.227038860321045,297.0
10.231848955154419,355.0
10.238209009170532,311.0
10.242491006851196,236.0
10.246187925338745,155.0
10.250290155410767,105.0
10.254016876220703,70.0
10.259996175765991,57.0
10.26465892791748,213.0
10.270988941192627,100.0
10.27524185180664,66.0
10.278965950012207,49.0
10.285064935684204,36.0
10.289644002914429,38.0
10.296113014221191,38.0
10.300457000732422,39.0
10.30419921875,46.0
10.310372114181519,53.0
10.31506085395813,121.0
10.321416854858398,124.0
10.325726985931396,121.0
10.329401969909668,144.0
10.335506200790405,189.0
10.340110063552856,254.0
10.346167087554932,198.0
10.350403070449829,176.0
10.353991985321045,158.0
10.36000394821167,224.0
10.364139080047607,298.0
10.370927095413208,321.0
10.377177000045776,334.0
10.381780862808228,218.0
10.388157844543457,160.0
10.392505168914795,149.0
10.396238088607788,235.0
10.40045690536499,382.0
10.404095888137817,335.0
10.410295009613037,151.0
10.414906024932861,112.0
10.421411991119385,186.0
10.426098108291626,176.0
10.429745197296143,103.0
10.434463024139404,143.0
10.438354969024658,37.0
10.442759990692139,38.0
10.446521997451782,270.0
10.451815128326416,268.0
10.456326007843018,90.0
10.463901996612549,89.0
10.469243049621582,64.0
10.473563194274902,112.0
10.480857133865356,311.0
10.485694885253906,325.0
10.490242004394531,351.0
10.494545221328735,368.0
10.49881100654602,380.0
10.503260850906372,435.0
10.510077953338623,446.0
10.514771938323975,433.0
10.519315004348755,453.0
10.523380994796753,509.0
10.530272006988525,489.0
10.534909963607788,431.0
10.53858208656311,396.0
10.542742013931274,390.0
10.546373128890991,432.0
10.550776958465576,398.0
10.554439783096313,307.0
10.56109094619751,240.0
10.56571102142334,294.0
10.57012391090393,392.0
10.576924085617065,389.0
10.581505060195923,263.0
10.588150978088379,219.0
10.592525005340576,262.0
10.596226930618286,400.0
10.600419998168945,374.0
10.604094982147217,282.0
10.610764026641846,239.0
10.615478038787842,271.0
10.623196840286255,367.0
10.627653121948242,426.0
10.631954193115234,339.0
10.639857053756714,256.0
10.646948099136353,332.0
10.651790142059326,373.0
10.65551209449768,282.0
10.660004138946533,244.0
10.663948059082031,385.0
10.671305894851685,473.0
10.676162004470825,341.0
10.679939985275269,305.0
10.684453010559082,352.0
10.688311100006104,417.0
10.692682027816772,572.0
10.69648003578186,468.0
10.701397895812988,376.0
10.705464124679565,429.0
10.710635900497437,477.0
10.714737176895142,370.0
10.721896886825562,269.0
10.726250886917114,275.0
10.730057001113892,362.0
10.734686851501465,349.0
10.738579988479614,373.0
10.742870092391968,347.0
10.746637105941772,336.0
10.75154995918274,256.0
10.7552330493927,230.0
10.759891986846924,278.0
10.76364803314209,273.0
10.768141031265259,462.0
10.771804094314575,507.0
10.776135206222534,323.0
10.77984881401062,390.0
10.784290075302124,573.0
10.788082838058472,569.0
10.792739152908325,499.0
10.796525955200195,495.0
10.80094313621521,581.0
10.80470085144043,624.0
10.809309959411621,639.0
10.81308102607727,702.0
10.817617177963257,722.0
10.821359157562256,730.0
10.825915098190308,723.0
10.829710006713867,743.0
10.834258794784546,731.0
10.83797025680542,644.0
10.842593908309937,563.0
10.846330165863037,542.0
10.851181030273438,522.0
10.855187892913818,817.0
10.859578132629395,771.0
10.864146947860718,544.0
10.87145209312439,463.0
10.876317977905273,506.0
10.880117893218994,596.0
10.884403944015503,778.0
10.88816499710083,817.0
10.892524003982544,754.0
10.896258115768433,783.0
10.90089201927185,878.0
10.904621124267578,881.0
10.909164905548096,870.0
10.912898063659668,922.0
10.917436122894287,947.0
10.921075820922852,937.0
10.927584886550903,914.0
10.932224988937378,922.0
10.936553955078125,939.0
10.943944931030273,935.0
10.948698997497559,898.0
10.953091144561768,919.0
10.957073211669922,905.0
10.961072206497192,858.0
10.965098857879639,937.0
10.972981929779053,967.0
10.979483127593994,1019.0
10.986186981201172,1023.0
10.993680000305176,1021.0
10.998652219772339,957.0
11.002811193466187,934.0
11.006975889205933,966.0
11.011188983917236,968.0
11.015239238739014,997.0
11.019507884979248,1023.0
11.023540019989014,1022.0
11.028093099594116,996.0
11.0326828956604,974.0
11.037022829055786,982.0
11.043683052062988,924.0
11.048403024673462,903.0
11.055246114730835,1005.0
11.060017108917236,872.0
11.063755989074707,884.0
11.06824016571045,962.0
11.072126865386963,1023.0
11.077023983001709,774.0
11.081454992294312,1023.0
11.088855981826782,947.0
11.093739986419678,951.0
11.097846031188965,1023.0
11.101932048797607,774.0
11.106653928756714,774.0
11.114881992340088,780.0
11.119633197784424,775.0
11.123794078826904,1023.0
11.128105878829956,780.0
11.132107973098755,844.0
11.137576818466187,776.0
11.144490003585815,774.0
11.148982048034668,774.0
11.153406858444214,778.0
11.157382011413574,777.0
11.16159987449646,784.0
11.165680170059204,1023.0
11.169794082641602,773.0
11.173727989196777,779.0
11.177688121795654,780.0
11.182251930236816,779.0
11.186952829360962,780.0
11.19336223602295,773.0
11.198071956634521,1023.0
11.204976081848145,776.0
11.20961308479309,779.0
11.213330030441284,778.0
11.217754125595093,779.0
11.22151803970337,776.0
11.225749969482422,788.0
11.22939419746399,773.0
11.236406087875366,777.0
11.243762969970703,777.0
11.248522996902466,776.0
11.252754926681519,784.0
11.256865978240967,772.0
11.264167785644531,780.0
11.271553993225098,781.0
11.275963068008423,774.0
11.27987003326416,923.0
11.28514814376831,775.0
11.289087057113647,778.0
11.296751976013184,777.0
11.30135178565979,778.0
11.305158138275146,778.0
11.30947494506836,777.0
11.313257932662964,775.0
11.317645072937012,793.0
11.321375846862793,772.0
11.326287031173706,785.0
11.330196857452393,786.0
11.335438966751099,776.0
11.339184999465942,1023.0
11.346853017807007,774.0
11.351542949676514,780.0
11.355292797088623,780.0
11.35993504524231,782.0
11.363709211349487,780.0
11.36858606338501,779.0
11.372764110565186,781.0
11.380088090896606,782.0
11.385487079620361,775.0
11.38981819152832,777.0
11.397381067276001,782.0
11.404680013656616,779.0
11.40938687324524,772.0
11.413372039794922,775.0
11.417820930480957,782.0
11.422126054763794,781.0
11.42644715309143,782.0
11.430269241333008,785.0
11.43522310256958,782.0
11.439111232757568,782.0
11.446655988693237,783.0
11.4513258934021,784.0
11.45519208908081,784.0
11.459590196609497,784.0
11.463580131530762,783.0
11.468232870101929,782.0
11.471925973892212,783.0
11.477075815200806,787.0
11.480687141418457,784.0
11.488654136657715,778.0
11.493428945541382,776.0
11.497400045394897,784.0
11.504741191864014,784.0
11.50934386253357,782.0
11.512999057769775,780.0
11.517337083816528,773.0
11.521438837051392,773.0
11.526113033294678,773.0
11.529959201812744,808.0
11.534871101379395,776.0
11.538687944412231,778.0
11.543107032775879,783.0
11.547471046447754,775.0
11.554780006408691,1023.0
11.560144186019897,776.0
11.563866138458252,782.0
11.568598985671997,781.0
11.572386026382446,784.0
11.579769134521484,784.0
11.584695100784302,785.0
11.589147090911865,786.0
11.59683084487915,785.0
11.601447820663452,784.0
11.60513710975647,785.0
11.609293937683105,784.0
11.61291790008545,781.0
11.617044925689697,777.0
11.620672941207886,780.0
11.627188920974731,781.0
11.632017135620117,780.0
11.636904001235962,781.0
11.64345121383667,784.0
11.648160934448242,774.0
11.654950141906738,983.0
11.659015893936157,778.0
11.663098096847534,774.0
11.667447090148926,777.0
11.67139196395874,780.0
11.67578387260437,782.0
11.679404973983765,781.0
11.68559193611145,778.0
11.690278053283691,780.0
11.697407007217407,781.0
11.704868078231812,778.0
11.709849119186401,778.0
11.713933944702148,779.0
11.718834161758423,784.0
11.723098993301392,784.0
11.729794025421143,783.0
11.734561920166016,784.0
11.738460779190063,782.0
11.742709875106812,784.0
11.746582984924316,783.0
11.751025199890137,783.0
11.754820108413696,782.0
11.759016990661621,781.0
11.762667894363403,780.0
11.76682996749878,781.0
11.770375967025757,780.0
11.77633810043335,780.0
11.78053092956543,780.0
11.78463101387024,779.0
11.788266897201538,778.0
11.792458057403564,779.0
11.796056985855103,777.0
11.80223798751831,774.0
11.806653261184692,773.0
11.813011884689331,776.0
11.817245960235596,773.0
11.821024894714355,879.0
11.824846982955933,824.0
11.828553915023804,1023.0
11.834885120391846,1023.0
11.839034080505371,1023.0
11.845793962478638,1023.0
11.852329969406128,798.0
11.856801986694336,1023.0
11.863410234451294,973.0
11.86809492111206,1023.0
11.87192702293396,937.0
11.876175165176392,1023.0
11.879815816879272,1023.0
11.883925914764404,857.0
11.887652158737183,772.0
11.893866062164307,778.0
11.898415088653564,874.0
11.904769897460938,816.0
11.909009218215942,772.0
11.91263198852539,791.0
11.91880202293396,799.0
11.923343181610107,980.0
11.929704904556274,1023.0
11.933878898620605,1023.0
11.937498092651367,1023.0
11.943632125854492,1023.0
11.948156118392944,1023.0
11.954480171203613,1023.0
11.95871615409851,1023.0
11.962285995483398,1023.0
11.968405961990356,1023.0
11.972956895828247,1023.0
11.979455947875977,1015.0
11.985812902450562,993.0
11.990474939346313,1005.0
11.994404077529907,980.0
11.998378992080688,1002.0
12.004786968231201,1006.0
12.010918140411377,960.0
12.01537299156189,943.0
12.019246101379395,981.0
12.023186206817627,1007.0
12.029546976089478,998.0
12.035819053649902,979.0
12.04035997390747,1008.0
12.04414701461792,1023.0
12.048008918762207,1023.0
12.054733037948608,979.0
12.058958053588867,955.0
12.062582015991211,992.0
12.068786859512329,999.0
12.073343992233276,981.0
12.077236890792847,933.0
12.081130027770996,925.0
12.087351083755493,909.0
12.093478202819824,905.0
12.097944021224976,906.0
12.104160070419312,880.0
12.11037302017212,883.0
12.11466908454895,888.0
12.120880126953125,866.0
12.127090215682983,864.0
12.131687879562378,852.0
12.138288021087646,833.0
12.142647981643677,841.0
12.146366834640503,830.0
12.152550220489502,812.0
12.157079935073853,816.0
12.161252975463867,801.0
12.165142059326172,764.0
12.171870946884155,756.0
12.17625117301941,759.0
12.179924964904785,761.0
12.184197187423706,734.0
12.187916994094849,732.0
12.192265033721924,756.0
12.196487188339233,712.0
12.201116800308228,746.0
12.2048659324646,752.0
12.209120035171509,722.0
12.213040113449097,726.0
12.217020034790039,706.0
12.221060991287231,715.0
12.225586175918579,694.0
12.229451894760132,691.0
12.235751152038574,676.0
12.240354061126709,665.0
12.247031927108765,653.0
12.25140905380249,650.0
12.255094051361084,653.0
12.25920295715332,623.0
12.262785911560059,605.0
12.268864870071411,591.0
12.273393154144287,578.0
12.277487993240356,580.0
12.281409978866577,597.0
12.288071870803833,584.0
12.292695045471191,577.0
12.296530961990356,561.0
12.30100393295288,550.0
12.304702997207642,525.0
12.309168100357056,556.0
12.312948942184448,554.0
12.317017078399658,527.0
12.320621967315674,499.0
12.326668977737427,510.0
12.331204175949097,527.0
12.337773084640503,533.0
12.344032049179077,531.0
12.348505973815918,531.0
12.35234808921814,546.0
12.35612416267395,550.0
12.362287998199463,558.0
12.368602991104126,570.0
12.373117923736572,578.0
12.379616975784302,544.0
12.383738994598389,564.0
12.387410163879395,595.0
12.393527030944824,590.0
12.39822793006897,549.0
12.404644966125488,540.0
12.408756017684937,548.0
12.412316083908081,540.0
12.41836404800415,515.0
12.422415018081665,515.0
12.429118871688843,501.0
12.435237169265747,492.0
12.4391610622406,499.0
12.4457368850708,500.0
12.452388048171997,494.0
12.457202196121216,495.0
12.461277961730957,502.0
12.46520209312439,486.0
12.471930980682373,481.0
12.476531982421875,483.0
12.480273008346558,446.0
12.48476791381836,444.0
12.488582134246826,439.0
12.492900133132935,432.0
12.496430158615112,425.0
12.502679109573364,419.0
12.50729489326477,401.0
12.511197805404663,397.0
12.515228986740112,398.0
12.521960973739624,381.0
12.526464939117432,372.0
12.530214071273804,361.0
12.534385204315186,347.0
12.538007020950317,326.0
12.542118072509766,315.0
12.545720100402832,313.0
12.552071809768677,311.0
12.556867122650146,292.0
12.560656070709229,278.0
12.564456939697266,250.0
12.57052493095398,224.0
12.576777935028076,225.0
12.580722093582153,208.0
12.587337017059326,211.0
12.593684911727905,202.0
12.598107099533081,199.0
12.604765892028809,206.0
12.60913896560669,194.0
12.612940073013306,201.0
12.61739206314087,199.0
12.621340036392212,203.0
12.625660181045532,220.0
12.629247903823853,230.0
12.635301113128662,187.0
12.63979697227478,182.0
12.646556854248047,201.0
12.651026964187622,186.0
12.654529094696045,174.0
12.658629179000854,148.0
12.662186861038208,164.0
12.668215990066528,142.0
12.672406911849976,129.0
12.679290056228638,132.0
12.686066150665283,120.0
12.690631866455078,92.0
12.694468975067139,85.0
12.698383092880249,82.0
12.70545506477356,62.0
12.710618019104004,70.0
12.714112997055054,67.0
12.721626996994019,63.0
12.726094961166382,50.0
12.729581117630005,43.0
12.73625111579895,37.0
12.74379014968872,35.0
12.748615026473999,37.0
12.752842903137207,36.0
12.757128953933716,38.0
12.764925241470337,30.0
12.769454956054688,40.0
12.773750066757202,34.0
12.781615972518921,36.0
12.786533117294312,35.0
12.793944120407104,36.0
12.79917597770691,28.0
12.804151058197021,38.0
12.81174087524414,40.0
12.819613933563232,35.0
12.825012922286987,39.0
12.82915711402893,38.0
12.836209058761597,36.0
12.844143152236938,36.0
12.852052927017212,34.0
12.857156991958618,33.0
12.861706972122192,35.0
12.86627197265625,38.0
12.870044231414795,35.0
12.876873970031738,36.0
12.882051944732666,33.0
12.88680386543274,37.0
12.893925189971924,36.0
12.899219989776611,37.0
12.903576135635376,36.0
12.910957098007202,37.0
12.919092893600464,32.0
12.927042961120605,38.0
12.93227481842041,33.0
12.936799049377441,34.0
12.943867206573486,35.0
12.94902491569519,36.0
12.95346999168396,30.0
12.958165884017944,33.0
12.962421894073486,38.0
12.96968388557434,33.0
12.977560997009277,25.0
12.982722997665405,36.0
12.986974000930786,37.0
12.994194030761719,35.0
12.999238014221191,37.0
13.004257917404175,35.0
13.00865888595581,36.0
13.012927055358887,35.0
13.01777982711792,39.0
13.02190113067627,34.0
13.027495861053467,38.0
13.031788110733032,28.0
13.039677858352661,38.0
13.04382610321045,36.0
13.047870874404907,35.0
13.05496597290039,38.0
13.060373067855835,38.0
13.064470052719116,29.0
13.07185411453247,39.0
13.076503038406372,42.0
13.080026149749756,41.0
13.084508895874023,39.0
13.08835506439209,38.0
13.092829942703247,42.0
13.096732139587402,38.0
13.10155701637268,39.0
13.105386018753052,38.0
13.110501050949097,39.0
13.114656925201416,37.0
13.121983051300049,43.0
13.126770973205566,42.0
13.13051700592041,56.0
13.13525390625,73.0
13.139109134674072,79.0
13.143785953521729,86.0
13.147351026535034,99.0
13.154819011688232,99.0
13.160068035125732,106.0
13.16380786895752,128.0
13.167912006378174,128.0
13.171555995941162,126.0
13.17643117904663,137.0
13.179952144622803,110.0
13.184900045394897,121.0
13.188760995864868,154.0
13.193487167358398,162.0
13.19727110862732,143.0
13.205082178115845,158.0
13.209411144256592,187.0
13.213387966156006,188.0
13.217761039733887,199.0
13.221461057662964,220.0
13.225627183914185,219.0
13.229248046875,214.0
13.23588490486145,214.0
13.240468978881836,263.0
13.244988203048706,245.0
13.249021053314209,248.0
13.25326418876648,280.0
13.257420063018799,301.0
13.262034893035889,283.0
13.268638849258423,286.0
13.274012804031372,302.0
13.278748035430908,331.0
13.2830069065094,364.0
13.286761999130249,391.0
13.293787002563477,393.0
13.298645973205566,401.0
13.303282976150513,408.0
13.307116985321045,427.0
13.311229228973389,436.0
13.315752983093262,460.0
13.320148944854736,478.0
13.325029134750366,443.0
13.328768014907837,433.0
13.335586071014404,483.0
13.340270042419434,486.0
13.344851970672607,487.0
13.3487069606781,487.0
13.3527250289917,498.0
13.356583833694458,495.0
13.363594055175781,528.0
13.368689060211182,510.0
13.372400045394897,530.0
13.376849174499512,507.0
13.380358219146729,559.0
13.38460111618042,554.0
13.388244867324829,553.0
13.392982959747314,550.0
13.396669864654541,553.0
13.401427984237671,552.0
13.40537691116333,554.0
13.410405158996582,569.0
13.414139032363892,575.0
13.421508073806763,554.0
13.426194190979004,500.0
13.42985486984253,530.0
13.434086084365845,589.0
13.437748908996582,596.0
13.442056894302368,570.0
13.445996046066284,563.0
13.452841997146606,585.0
13.457297086715698,596.0
13.461915016174316,581.0
13.468550205230713,598.0
13.473023891448975,629.0
13.479722023010254,618.0
13.48438286781311,629.0
13.488185167312622,629.0
13.492564916610718,637.0
13.496305227279663,634.0
13.500868082046509,623.0
13.504771947860718,631.0
13.509849071502686,639.0
13.513978004455566,659.0
13.521180868148804,675.0
13.527801036834717,661.0
13.532601118087769,669.0
13.536456823348999,682.0
13.540273189544678,668.0
13.544127941131592,655.0
13.547959089279175,671.0
13.55483603477478,686.0
13.559669971466064,677.0
13.56321406364441,669.0
13.567193031311035,667.0
13.570733070373535,698.0
13.577183961868286,703.0
13.581707954406738,700.0
13.588292121887207,707.0
13.592694997787476,715.0
13.596267938613892,739.0
13.600280046463013,745.0
13.603868007659912,737.0
13.610395193099976,777.0
13.61492919921875,780.0
13.621586084365845,750.0
13.625938177108765,751.0
13.629430055618286,783.0
13.633423089981079,775.0
13.636918067932129,778.0
13.643349885940552,776.0
13.647337913513184,794.0
13.65383505821228,767.0
13.660818815231323,785.0
13.66551399230957,786.0
13.66971492767334,782.0
13.673895835876465,800.0
13.677797079086304,811.0
13.681765079498291,809.0
13.688695907592773,798.0
13.69429898262024,793.0
13.698854207992554,773.0
13.703045129776001,765.0
13.706938028335571,782.0
13.71078109741211,809.0
13.714508056640625,795.0
13.7219078540802,773.0
13.727165937423706,745.0
13.73107099533081,741.0
13.738063097000122,762.0
13.742829084396362,766.0
13.746405124664307,773.0
13.751380920410156,820.0
13.755228996276855,826.0
13.760007858276367,833.0
13.763767004013062,825.0
13.768306255340576,825.0
13.771782159805298,853.0
13.77630615234375,891.0
13.779844045639038,891.0
13.78420901298523,901.0
13.788060903549194,914.0
13.793056011199951,904.0
13.796794176101685,905.0
13.801613092422485,912.0
13.805192947387695,910.0
13.810198068618774,922.0
13.814012050628662,932.0
13.821545839309692,923.0
13.826917171478271,928.0
13.830541133880615,953.0
13.835330963134766,950.0
13.838944911956787,952.0
13.846573114395142,968.0
13.851086139678955,991.0
13.854719877243042,990.0
13.859442949295044,968.0
13.863026142120361,996.0
13.867736101150513,1017.0
13.871523141860962,1021.0
13.875365018844604,1008.0
13.879339933395386,1015.0
13.886264085769653,1023.0
13.893889904022217,1023.0
13.898401975631714,1023.0
13.90262508392334,1023.0
13.906426191329956,1023.0
13.913651943206787,1023.0
13.918370008468628,1023.0
13.922338962554932,1023.0
13.929292917251587,1023.0
13.935849905014038,1023.0
13.940438985824585,1023.0
13.944291114807129,1023.0
13.948087930679321,1023.0
13.95477294921875,1023.0
13.959271907806396,1023.0
13.963139057159424,1023.0
13.966969013214111,1023.0
13.970916986465454,1023.0
13.975500106811523,1023.0
13.979268074035645,1023.0
13.985906839370728,1023.0
13.990447044372559,1023.0
13.994949102401733,1023.0
13.99883484840393,1023.0
14.002843141555786,1023.0
14.006662130355835,1023.0
14.013299942016602,1023.0
14.018173933029175,1023.0
14.021745204925537,1023.0
14.025979042053223,968.0
14.029671907424927,1023.0
14.03384017944336,1023.0
14.037559986114502,1023.0
14.042547941207886,1023.0
14.046458005905151,999.0
14.051257133483887,927.0
14.054834842681885,1023.0
14.058929204940796,1023.0
14.062456130981445,931.0
14.06872296333313,843.0
14.072980880737305,867.0
14.079478025436401,911.0
14.085870027542114,864.0
14.090250968933105,1023.0
14.094322919845581,1023.0
14.098096132278442,775.0
14.104871034622192,794.0
14.109687089920044,962.0
14.113381147384644,966.0
14.117887020111084,882.0
14.121456146240234,871.0
14.125675916671753,1000.0
14.129497051239014,789.0
14.133971929550171,810.0
14.1376051902771,811.0
14.143956899642944,776.0
14.148455142974854,784.0
14.15235710144043,774.0
14.15615200996399,776.0
14.163087129592896,776.0
14.16795015335083,774.0
14.171531915664673,772.0
14.175513982772827,773.0
14.179090023040771,773.0
14.185428857803345,773.0
14.189831972122192,777.0
14.19658899307251,773.0
14.200656175613403,773.0
14.204200983047485,772.0
14.210692167282104,772.0
14.21520709991455,780.0
14.219449043273926,799.0
14.223136901855469,773.0
14.229969024658203,773.0
14.234123945236206,773.0
14.237698078155518,773.0
14.24170708656311,831.0
14.245321989059448,783.0
14.25165319442749,776.0
14.25570297241211,774.0
14.262811183929443,772.0
14.26699686050415,775.0
14.270599126815796,772.0
14.277152061462402,773.0
14.28164291381836,773.0
14.288182020187378,772.0
14.292538166046143,773.0
14.296113014221191,773.0
14.300065040588379,775.0
14.303621053695679,775.0
14.310119867324829,776.0
14.314803838729858,776.0
14.321433067321777,775.0
14.325711011886597,774.0
14.329761981964111,774.0
14.333916187286377,776.0
14.337676048278809,776.0
14.344064950942993,774.0
14.348642110824585,776.0
14.355288028717041,772.0
14.359994173049927,773.0
14.36367678642273,772.0
14.368061065673828,776.0
14.371794939041138,778.0
14.376199960708618,779.0
14.379946947097778,772.0
14.384480953216553,773.0
14.388083934783936,774.0
14.39407992362976,776.0
14.398555040359497,773.0
14.402706861495972,773.0
14.406548023223877,776.0
14.412763118743896,777.0
14.418812036514282,775.0
14.423187971115112,776.0
14.4292631149292,776.0
14.435389041900635,777.0
14.439857006072998,778.0
14.446194887161255,777.0
14.450398921966553,778.0
14.45403003692627,778.0
14.459967851638794,778.0
14.46408486366272,779.0
14.47072982788086,778.0
14.476814985275269,777.0
14.481180191040039,777.0
14.487581968307495,779.0
14.493724822998047,776.0
14.498154878616333,778.0
14.50436806678772,777.0
14.510467052459717,778.0
14.514922857284546,775.0
14.521157026290894,775.0
14.525270938873291,774.0
14.528860807418823,774.0
14.5348961353302,774.0
14.53892183303833,774.0
14.5455641746521,774.0
14.551920175552368,775.0
14.556507110595703,776.0
14.562891960144043,776.0
14.568973064422607,774.0
14.57348918914795,774.0
14.579745054244995,772.0
14.583783149719238,775.0
14.587387084960938,777.0
14.59349012374878,776.0
14.597953081130981,775.0
14.604362964630127,776.0
14.608531951904297,776.0
14.612052917480469,776.0
14.617875814437866,776.0
14.621824026107788,776.0
14.625967979431152,776.0
14.629442930221558,774.0
14.635283946990967,777.0
14.639751195907593,778.0
14.645831108093262,778.0
14.651890993118286,777.0
14.656249046325684,777.0
14.662487030029297,774.0
14.66848087310791,777.0
14.672845125198364,777.0
14.679141998291016,776.0
14.68511414527893,776.0
14.689056873321533,773.0
14.695498943328857,773.0
14.701557874679565,774.0
14.705452919006348,776.0
14.709589958190918,775.0
14.713042974472046,774.0
14.717040061950684,774.0
14.720616817474365,776.0
14.726689100265503,777.0
14.731252908706665,777.0
14.737844944000244,776.0
14.74229097366333,776.0
14.745776176452637,776.0
14.75173807144165,776.0
14.75554895401001,777.0
14.75965404510498,775.0
14.76297903060913,775.0
14.768775939941406,774.0
14.772958993911743,774.0
14.779253005981445,774.0
14.785266160964966,776.0
14.7897629737854,776.0
14.796014070510864,776.0
14.802037000656128,776.0
14.80649995803833,776.0
14.812727928161621,777.0
14.818837881088257,776.0
14.823260068893433,778.0
14.829265117645264,776.0
14.835250854492188,777.0
14.83960485458374,779.0
14.845721960067749,777.0
14.851737022399902,776.0
14.855690002441406,775.0
14.862249851226807,776.0
14.868236064910889,776.0
14.872221946716309,776.0
14.87874984741211,776.0
14.884804964065552,775.0
14.888860940933228,775.0
14.893017053604126,776.0
14.89648723602295,776.0
14.900332927703857,777.0
14.903848886489868,776.0
14.909778118133545,776.0
14.91380000114441,775.0
14.918268203735352,776.0
14.921955108642578,775.0
14.926070928573608,775.0
14.929593086242676,774.0
14.935447931289673,774.0
14.939847230911255,774.0
14.94591999053955,774.0
14.952039241790771,774.0
14.956338882446289,774.0
14.962393045425415,774.0
14.968405961990356,772.0
14.972368001937866,773.0
14.978883981704712,774.0
14.984791994094849,774.0
14.988860130310059,774.0
14.993308067321777,773.0
14.996969938278198,776.0
15.001208066940308,772.0
15.004801034927368,774.0
15.009170055389404,845.0
15.013147115707397,867.0
15.017031908035278,839.0
15.020895957946777,867.0
15.027096033096313,876.0
15.03141188621521,976.0
15.037737846374512,980.0
15.041735887527466,1023.0
15.045180082321167,868.0
15.04904294013977,943.0
15.053178071975708,1023.0
15.057209968566895,944.0
15.060947895050049,992.0
15.064581155776978,1023.0
15.070842981338501,992.0
15.076871871948242,911.0
15.081141948699951,974.0
15.087543964385986,1023.0
15.093605041503906,1023.0
15.098104000091553,1023.0
15.104290962219238,1023.0
15.110406160354614,1023.0
15.114565134048462,1023.0
15.12080192565918,1023.0
15.126904010772705,1023.0
15.130730867385864,1023.0
15.137142896652222,1023.0
15.143052101135254,1023.0
15.146896123886108,1023.0
15.150951147079468,1023.0
15.15435791015625,1023.0
15.160210847854614,1023.0
15.164585828781128,1023.0
15.170738220214844,1023.0
15.176682949066162,1023.0
15.180682897567749,1023.0
15.187517166137695,1023.0
15.19368290901184,1023.0
15.198227882385254,1023.0
15.204968929290771,1023.0
15.209328174591064,1023.0
15.213002920150757,1023.0
15.217216968536377,1023.0
15.220847129821777,1023.0
15.227015972137451,1023.0
15.231621026992798,1023.0
15.238104104995728,1023.0
15.242431879043579,1023.0
15.246044874191284,1023.0
15.250234127044678,1023.0
15.253941059112549,1023.0
15.260157108306885,1023.0
15.26457691192627,1023.0
15.27090311050415,1023.0
15.277310848236084,1023.0
15.28213095664978,1023.0
15.286071062088013,1023.0
15.289838075637817,1023.0
15.29633617401123,1023.0
15.300615072250366,1023.0
15.304232835769653,1023.0
15.310269117355347,1023.0
15.314736127853394,1023.0
15.321204900741577,1010.0
15.325737953186035,1023.0
15.329293966293335,1023.0
15.33540391921997,1023.0
15.339869976043701,1007.0
15.346320152282715,1000.0
15.352423191070557,989.0
15.357269048690796,991.0
15.363717079162598,982.0
15.367879152297974,984.0
15.371303081512451,981.0
15.375784873962402,975.0
15.379366159439087,984.0
15.385517120361328,980.0
15.390062093734741,972.0
15.396286964416504,966.0
15.400446891784668,959.0
15.404021978378296,935.0
15.41012191772461,960.0
15.414076089859009,970.0
15.420786142349243,950.0
15.426990032196045,945.0
15.431468963623047,938.0
15.437984943389893,932.0
15.442320108413696,940.0
15.445938110351562,946.0
15.450294017791748,951.0
15.454015016555786,943.0
15.45825982093811,960.0
15.461976051330566,959.0
15.46820592880249,966.0
15.472357034683228,968.0
15.479102849960327,950.0
15.485698938369751,958.0
15.490283966064453,982.0
15.497092008590698,1011.0
15.501674890518188,999.0
15.505361080169678,975.0
15.509866952896118,997.0
15.51357889175415,996.0
15.517755031585693,1000.0
15.521622896194458,1009.0
15.525463104248047,1004.0
15.52951192855835,1012.0
15.534094095230103,999.0
15.538161039352417,1017.0
15.542778015136719,1022.0
15.54646897315979,1018.0
15.550943851470947,1016.0
15.554640054702759,995.0
15.558895111083984,1010.0
15.562668085098267,1011.0
15.569119930267334,1018.0
15.573535919189453,1011.0
15.580147981643677,1005.0
15.584235906600952,984.0
15.588167905807495,975.0
15.592275857925415,978.0
15.596323013305664,981.0
15.600378036499023,982.0
15.604344129562378,968.0
15.609107971191406,960.0
15.612766027450562,968.0
15.619048833847046,970.0
15.623762845993042,972.0
15.627799034118652,965.0
15.631648063659668,936.0
15.638093948364258,950.0
15.642240047454834,959.0
15.64587116241455,961.0
15.652107954025269,934.0
15.656409978866577,943.0
15.66296911239624,936.0
15.669358968734741,931.0
15.673808097839355,934.0
15.677830219268799,933.0
15.681788206100464,920.0
15.688443183898926,929.0
15.692984104156494,939.0
15.696773052215576,926.0
15.701020240783691,938.0
15.70465087890625,947.0
15.708805084228516,953.0
15.712407112121582,947.0
15.718750953674316,952.0
15.723196029663086,974.0
15.729925155639648,971.0
15.734217882156372,957.0
15.738091945648193,953.0
15.742396116256714,957.0
15.74592399597168,956.0
15.752449989318848,968.0
15.756963014602661,976.0
15.761259078979492,976.0
15.76503300666809,975.0
15.771596908569336,979.0
15.776071071624756,992.0
15.779906034469604,991.0
15.784489870071411,993.0
15.788286924362183,996.0
15.792750120162964,967.0
15.79654598236084,1001.0
15.80079698562622,1014.0
15.804603099822998,988.0
15.80889105796814,1000.0
15.81267499923706,993.0
15.81701397895813,987.0
15.821179151535034,989.0
15.825634002685547,1000.0
15.829288005828857,1005.0
15.83561110496521,977.0
15.840140104293823,998.0
15.844252824783325,1011.0
15.848694086074829,1000.0
15.852733135223389,1008.0
15.856417894363403,1009.0
15.863837003707886,1010.0
15.868545055389404,993.0
15.87241005897522,1008.0
15.879592895507812,1006.0
15.883818864822388,1007.0
15.88756513595581,995.0
15.894773960113525,980.0
15.902023792266846,971.0
15.90650200843811,967.0
15.913068056106567,958.0
15.917464971542358,975.0
15.92108416557312,975.0
15.927319049835205,998.0
15.931764841079712,1005.0
15.938233137130737,1010.0
15.942738056182861,1008.0
15.946316957473755,1013.0
15.952805042266846,1022.0
15.957427024841309,1021.0
15.961847066879272,1023.0
15.965821027755737,1023.0
15.969794988632202,1023.0
15.973870992660522,1023.0
15.977878093719482,1023.0
15.981657028198242,1023.0
15.985649108886719,1023.0
15.989461898803711,1023.0
15.99626898765564,1023.0
16.00266695022583,1023.0
16.00733995437622,1023.0
16.011653184890747,1023.0
16.015626907348633,1023.0
16.0196430683136,1023.0
16.023354053497314,1023.0
16.030290126800537,1023.0
16.035271167755127,1023.0
16.0388400554657,1023.0
16.04311490058899,1023.0
16.04666304588318,1023.0
16.051282167434692,1023.0
16.05494499206543,1005.0
16.059509992599487,1023.0
16.063220977783203,1019.0
16.067281007766724,1022.0
16.071133852005005,1016.0
16.07532000541687,1014.0
16.07921004295349,1016.0
16.08551812171936,1008.0
16.089911937713623,987.0
16.096933126449585,999.0
16.101397037506104,1005.0
16.10501503944397,993.0
16.109237909317017,988.0
16.112858057022095,1006.0
16.119207859039307,977.0
16.123978853225708,990.0
16.12848401069641,987.0
16.13218092918396,977.0
16.136460065841675,983.0
16.14045786857605,984.0
16.144493103027344,991.0
16.149713039398193,988.0
16.153486967086792,997.0
16.160012006759644,1002.0
16.16413402557373,1002.0
16.17116904258728,977.0
16.175731897354126,992.0
16.179422855377197,986.0
16.18561887741089,982.0
16.19021201133728,990.0
16.19449496269226,991.0
16.198439121246338,972.0
16.20522117614746,964.0
16.209513902664185,953.0
16.213078022003174,952.0
16.21752905845642,953.0
16.221343994140625,957.0
16.225476026535034,925.0
16.229005098342896,935.0
16.235290050506592,960.0
16.239758014678955,957.0
16.24669885635376,945.0
16.25095796585083,931.0
16.25461506843567,935.0
16.25870418548584,957.0
16.262577056884766,954.0
16.269022941589355,963.0
16.273578882217407,960.0
16.280172109603882,940.0
16.28461790084839,931.0
16.288227081298828,947.0
16.292248964309692,941.0
16.295886039733887,940.0
16.30203104019165,954.0
16.30644702911377,944.0
16.313140869140625,935.0
16.317507028579712,959.0
16.321295022964478,954.0
16.32542610168457,949.0
16.329105138778687,952.0
16.335378170013428,939.0
16.33981204032898,906.0
16.346546173095703,939.0
16.35107398033142,957.0
16.35471510887146,941.0
16.358877897262573,923.0
16.36246395111084,894.0
16.36867904663086,915.0
16.373318195343018,915.0
16.37997794151306,911.0
16.384443044662476,888.0
16.388062953948975,900.0
16.39263606071472,908.0
16.396288871765137,912.0
16.400866985321045,906.0
16.40474796295166,890.0
16.40922999382019,898.0
16.41290307044983,908.0
16.417948007583618,887.0
16.42299795150757,862.0
16.42969012260437,863.0
16.43408203125,856.0
16.437865018844604,841.0
16.44225311279297,841.0
16.44623613357544,842.0
16.453310012817383,858.0
16.458420038223267,846.0
16.4621160030365,831.0
16.469079971313477,826.0
16.473968029022217,853.0
16.478310108184814,861.0
16.482785940170288,852.0
16.48678183555603,860.0
16.493706941604614,861.0
16.498296976089478,851.0
16.505090951919556,844.0
16.509775161743164,833.0
16.51338219642639,822.0
16.517671823501587,806.0
16.52139115333557,782.0
16.525697946548462,775.0
16.529535055160522,764.0
16.536197185516357,779.0
16.54071593284607,764.0
16.545745134353638,734.0
16.552775859832764,746.0
16.557518005371094,791.0
16.5619900226593,749.0
16.5686252117157,753.0
16.57357096672058,761.0
16.57810926437378,787.0
16.581926107406616,794.0
16.586064100265503,798.0
16.590122938156128,814.0
16.59744620323181,798.0
16.604703903198242,776.0
16.60894513130188,785.0
16.612794160842896,762.0
16.617682933807373,778.0
16.621254205703735,772.0
16.62795114517212,766.0
16.635519981384277,735.0
16.639988899230957,758.0
16.646788120269775,751.0
16.6515052318573,748.0
16.655273914337158,719.0
16.659925937652588,701.0
16.663543939590454,695.0
16.66839909553528,687.0
16.672049045562744,695.0
16.676946878433228,685.0
16.680595874786377,666.0
16.688052892684937,661.0
16.692727088928223,653.0
16.697110891342163,644.0
16.70260715484619,628.0
16.706707000732422,645.0
16.713461875915527,653.0
16.718240976333618,660.0
16.721965074539185,672.0
16.72635316848755,658.0
16.729965925216675,668.0
16.73414707183838,671.0
16.73778986930847,665.0
16.74266791343689,659.0
16.746773958206177,651.0
16.752166032791138,637.0
16.755724906921387,638.0
16.76312494277954,620.0
16.767515182495117,600.0
16.77148699760437,616.0
16.775623083114624,606.0
16.779871940612793,599.0
16.784569025039673,597.0
16.78829002380371,593.0
16.793041229248047,574.0
16.7967050075531,577.0
16.80196189880371,579.0
16.805511236190796,578.0
16.810571908950806,576.0
16.814028024673462,560.0
16.821395874023438,552.0
16.825850009918213,562.0
16.829607248306274,566.0
16.833714962005615,534.0
16.83750009536743,513.0
16.84222412109375,496.0
16.846140146255493,520.0
16.85094118118286,519.0
16.85471200942993,505.0
16.8588650226593,501.0
16.86247491836548,485.0
16.868909120559692,496.0
16.87384796142578,472.0
16.87829899787903,483.0
16.88520908355713,467.0
16.88978910446167,463.0
16.896764039993286,453.0
16.901689052581787,449.0
16.906246185302734,454.0
16.911093950271606,439.0
16.915148973464966,420.0
16.92210817337036,411.0
16.92671298980713,397.0
16.9302020072937,380.0
16.934492111206055,364.0
16.938234090805054,378.0
16.942123889923096,340.0
16.946396827697754,349.0
16.951239824295044,328.0
16.95507502555847,349.0
16.959707021713257,360.0
16.963310956954956,332.0
16.967833042144775,326.0
16.97183609008789,312.0
16.976404905319214,310.0
16.98006010055542,313.0
16.984610080718994,303.0
16.98828411102295,280.0
16.993115186691284,266.0
16.996674060821533,259.0
17.0015230178833,224.0
17.00517511367798,242.0
17.009643077850342,223.0
17.013389110565186,208.0
17.018190145492554,205.0
17.021766185760498,197.0
17.02636694908142,186.0
17.03014612197876,153.0
17.03449320793152,172.0
17.038146018981934,183.0
17.042585134506226,164.0
17.04639506340027,159.0
17.051083087921143,162.0
17.056445837020874,163.0
17.064654111862183,152.0
17.072156190872192,145.0
17.076819896697998,152.0
17.08063006401062,148.0
17.087833166122437,151.0
17.09237289428711,145.0
17.095911979675293,130.0
17.100516080856323,136.0
17.104717016220093,131.0
17.11044716835022,119.0
17.11503314971924,122.0
17.12341284751892,106.0
17.127514123916626,95.0
17.131590127944946,84.0
17.138741970062256,96.0
17.143681049346924,90.0
17.147364139556885,58.0
17.15173602104187,52.0
17.155232906341553,44.0
17.159199953079224,43.0
17.16283893585205,41.0
17.168134212493896,39.0
17.17302393913269,38.0
17.180700063705444,39.0
17.187740802764893,41.0
17.194268941879272,39.0
17.19884705543518,41.0
17.203284978866577,37.0
17.20735001564026,38.0
17.211589097976685,35.0
17.215559244155884,41.0
17.219901084899902,40.0
17.223798036575317,34.0
17.22828507423401,38.0
17.232123136520386,37.0
17.236797094345093,37.0
17.24337100982666,37.0
17.247443914413452,34.0
17.25442600250244,37.0
17.260807037353516,40.0
17.265223026275635,34.0
17.2690110206604,37.0
17.272856950759888,33.0
17.27964687347412,39.0
17.28434991836548,31.0
17.288316011428833,36.0
17.292567014694214,31.0
17.29621911048889,35.0
17.302704095840454,31.0
17.307147979736328,32.0
17.31147003173828,31.0
17.31526494026184,35.0
17.322161197662354,30.0
17.32667303085327,34.0
17.330585956573486,37.0
17.33806610107422,32.0
17.342595100402832,36.0
17.34642195701599,37.0
17.35126304626465,31.0
17.35487985610962,28.0
17.359179973602295,36.0
17.362630128860474,31.0
17.36921501159668,35.0
17.37389898300171,27.0
17.37813401222229,34.0
17.382648944854736,33.0
17.386587142944336,36.0
17.3903489112854,26.0
17.394579887390137,35.0
17.398345947265625,24.0
17.405066967010498,31.0
17.40997290611267,36.0
17.41342306137085,31.0
17.417454957962036,26.0
17.421092987060547,31.0
17.425708055496216,32.0
17.429326057434082,36.0
17.43418002128601,31.0
17.43767499923706,24.0
17.444048166275024,30.0
17.448519229888916,34.0
17.452588081359863,31.0
17.456411123275757,25.0
17.46354603767395,32.0
17.467988967895508,32.0
17.472249031066895,31.0
17.479751110076904,37.0
17.48413586616516,31.0
17.487913846969604,31.0
17.49231791496277,24.0
17.496608018875122,29.0
17.501131057739258,32.0
17.504911184310913,26.0
17.509029150009155,31.0
17.512707948684692,24.0
17.51705503463745,31.0
17.520981073379517,33.0
17.527193069458008,34.0
17.532022953033447,32.0
17.536563873291016,32.0
17.54084086418152,31.0
17.545150995254517,33.0
17.551737070083618,30.0
17.556434869766235,34.0
17.56071901321411,32.0
17.56439709663391,30.0
17.571484804153442,31.0
17.575901985168457,32.0
17.579646825790405,31.0
17.583747148513794,26.0
17.587491989135742,28.0
17.593990087509155,34.0
17.598738193511963,31.0
17.603491067886353,31.0
17.607867002487183,30.0
17.611406087875366,28.0
17.61514687538147,34.0
17.62169313430786,31.0
17.626264095306396,30.0
17.629817962646484,30.0
17.633837938308716,30.0
17.63743782043457,32.0
17.643730878829956,28.0
17.64811420440674,28.0
17.65521001815796,32.0
17.659563064575195,29.0
17.663147926330566,30.0
17.66726589202881,31.0
17.67117214202881,29.0
17.675304889678955,31.0
17.67917799949646,30.0
17.685545921325684,25.0
17.68996810913086,28.0
17.696681022644043,27.0
17.70118808746338,30.0
17.70485806465149,30.0
17.709041118621826,31.0
17.71306324005127,31.0
17.717620849609375,28.0
17.72124409675598,29.0
17.72631812095642,32.0
17.72997498512268,31.0
17.734648942947388,29.0
17.73905897140503,29.0
17.74731206893921,28.0
17.751626014709473,28.0
17.755150079727173,27.0
17.75911021232605,28.0
17.762732982635498,27.0
17.767436027526855,31.0
17.77175283432007,27.0
17.776288986206055,32.0
17.780466079711914,31.0
17.78573989868164,28.0
17.79049587249756,25.0
17.79550004005432,31.0
17.80031418800354,31.0
17.804630994796753,31.0
17.809722185134888,27.0
17.814083099365234,32.0
17.82186007499695,27.0
17.82662296295166,29.0
17.830181121826172,28.0
17.834968090057373,31.0
17.838666915893555,28.0
17.843828916549683,29.0
17.84739398956299,27.0
17.85444402694702,20.0
17.858911991119385,29.0
17.86264395713806,27.0
17.869187116622925,26.0
17.873615026474,29.0
17.87999415397644,30.0
17.884566068649292,26.0
17.888216972351074,27.0
17.89262890815735,25.0
17.896378993988037,27.0
17.900935888290405,23.0
17.904660940170288,29.0
17.909229040145874,26.0
17.912802934646606,25.0
17.917586088180542,23.0
17.921238899230957,28.0
17.92559504508972,29.0
17.92936396598816,28.0
17.93568205833435,30.0
17.943286895751953,29.0
17.947207927703857,29.0
17.954140186309814,29.0
17.96044421195984,31.0
17.96484923362732,20.0
17.97105884552002,29.0
17.977436780929565,28.0
17.981740951538086,29.0
17.988185167312622,29.0
17.992488861083984,23.0
17.995914936065674,32.0
18.000236988067627,22.0
18.004120111465454,35.0
18.0106360912323,26.0
18.014939069747925,27.0
18.021512985229492,24.0
18.025965929031372,26.0
18.029489040374756,29.0
18.03390407562256,27.0
18.037843942642212,21.0
18.042222023010254,29.0
18.045724153518677,22.0
18.052297830581665,28.0
18.056722164154053,28.0
18.06319499015808,24.0
18.067609071731567,20.0
18.071017026901245,28.0
18.077724933624268,28.0
18.082366943359375,26.0
18.08650803565979,22.0
18.09040904045105,26.0
18.094318151474,30.0
18.098339080810547,27.0
18.102657079696655,27.0
18.106693029403687,19.0
18.11316204071045,27.0
18.11755108833313,28.0
18.120975017547607,19.0
18.127429008483887,27.0
18.131697177886963,26.0
18.13811206817627,29.0
18.142709970474243,24.0
18.14618492126465,28.0
18.15262794494629,25.0
18.157439947128296,28.0
18.16176986694336,24.0
18.16850996017456,28.0
18.17300295829773,26.0
18.17964005470276,27.0
18.18422508239746,28.0
18.187880992889404,26.0
18.192373037338257,24.0
18.196502923965454,27.0
18.201149225234985,27.0
18.204836130142212,25.0
18.20906901359558,26.0
18.212694883346558,26.0
18.2191641330719,28.0
18.223731994628906,19.0
18.227926015853882,28.0
18.231754064559937,25.0
18.23556613922119,25.0
18.23909902572632,27.0
18.24590516090393,24.0
18.252442121505737,29.0
18.256938934326172,29.0
18.263826847076416,27.0
18.268039226531982,26.0
18.271880865097046,27.0
18.27611494064331,26.0
18.27965211868286,23.0
18.284191846847534,27.0
18.287750005722046,30.0
18.294042110443115,27.0
18.298343896865845,23.0
18.30491805076599,27.0
18.309268951416016,26.0
18.312982082366943,26.0
18.31714105606079,27.0
18.3208749294281,27.0
18.325654983520508,21.0
18.329365015029907,27.0
18.33397102355957,22.0
18.337694883346558,26.0
18.344130039215088,27.0
18.34882402420044,19.0
18.353008031845093,25.0
18.356821060180664,31.0
18.361130952835083,28.0
18.364917993545532,28.0
18.371984004974365,26.0
18.376697063446045,31.0
18.38031315803528,21.0
18.38487195968628,27.0
18.388569116592407,22.0
18.392856121063232,25.0
18.39655590057373,19.0
18.400793075561523,24.0
18.404503107070923,25.0
18.408996105194092,25.0
18.412642002105713,18.0
18.419167041778564,27.0
18.423698902130127,27.0
18.42843198776245,26.0
18.435338973999023,27.0
18.439918994903564,25.0
18.44701600074768,26.0
18.451600074768066,25.0
18.45548701286316,30.0
18.459984064102173,24.0
18.463654041290283,26.0
18.468058109283447,27.0
18.471683025360107,26.0
18.476166009902954,24.0
18.479816913604736,26.0
18.486186981201172,29.0
18.491504192352295,27.0
18.49516797065735,22.0
18.49896812438965,26.0
18.502726078033447,24.0
18.50655198097229,24.0
18.513185024261475,22.0
18.517848014831543,26.0
18.521458864212036,23.0
18.525460958480835,25.0
18.529056072235107,27.0
18.53358006477356,25.0
18.53772521018982,23.0
18.54311490058899,27.0
18.546626091003418,27.0
18.550962209701538,28.0
18.554578065872192,25.0
18.5612690448761,25.0
18.566619157791138,29.0
18.570348024368286,19.0
18.576823949813843,19.0
18.58131194114685,27.0
18.587538242340088,22.0
18.592204093933105,27.0
18.5958571434021,26.0
18.60037398338318,25.0
18.603918075561523,28.0
18.60812211036682,18.0
18.612510919570923,25.0
18.617655038833618,28.0
18.622196912765503,24.0
18.630211114883423,28.0
18.635014057159424,24.0
18.639452934265137,24.0
18.64722990989685,27.0
18.651582956314087,27.0
18.655121088027954,26.0
18.659168004989624,28.0
18.662792921066284,26.0
18.66727900505066,24.0
18.67082905769348,26.0
18.6771399974823,28.0
18.681661128997803,25.0
18.68592405319214,27.0
18.689783096313477,28.0
18.69709587097168,23.0
18.701519012451172,30.0
18.70508098602295,27.0
18.709248065948486,24.0
18.71293592453003,26.0
18.718130826950073,24.0
18.72277593612671,29.0
18.727965831756592,29.0
18.735101222991943,23.0
18.739691972732544,24.0
18.74668312072754,26.0
18.75143814086914,28.0
18.755290985107422,25.0
18.75993013381958,25.0
18.76363706588745,27.0
18.76832103729248,17.0
18.771914958953857,25.0
18.776774168014526,26.0
18.780642986297607,25.0
18.787697076797485,23.0
18.79193115234375,26.0
18.795611143112183,23.0
18.802072048187256,27.0
18.8066349029541,26.0
18.81298303604126,25.0
18.817246913909912,23.0
18.82079315185547,27.0
18.82737898826599,28.0
18.83210587501526,31.0
18.836434841156006,24.0
18.840193033218384,24.0
18.8467800617218,28.0
18.85111117362976,25.0
18.85468888282776,30.0
18.858793020248413,24.0
18.862667083740234,28.0
18.869071006774902,23.0
18.87383508682251,25.0
18.878051042556763,24.0
18.881756067276,26.0
18.88865303993225,30.0
18.893176078796387,27.0
18.89675998687744,25.0
18.903462171554565,29.0
18.91061806678772,19.0
18.915045022964478,23.0
18.919161081314087,26.0
18.92311120033264,23.0
18.929471969604492,24.0
18.933796167373657,30.0
18.937445163726807,27.0
18.944021940231323,21.0
18.948708057403564,26.0
18.95253300666809,19.0
18.95616602897644,28.0
18.96333408355713,27.0
18.96800398826599,24.0
18.971688985824585,25.0
18.975938081741333,28.0
18.980135917663574,23.0
18.984615802764893,25.0
18.98831295967102,27.0
18.99272108078003,20.0
18.996334075927734,28.0
19.000452041625977,25.0
19.00433611869812,25.0
19.008825063705444,26.0
19.01248788833618,25.0
19.018930196762085,27.0
19.023550987243652,30.0
19.02781581878662,26.0
19.03173303604126,23.0
19.038782835006714,30.0
19.04352903366089,25.0
19.047271966934204,25.0
19.051573991775513,24.0
19.055264949798584,28.0
19.059975147247314,27.0
19.063748121261597,26.0
19.068684101104736,23.0
19.072237014770508,26.0
19.079498052597046,24.0
19.08399510383606,27.0
19.088170051574707,25.0
19.09297823905945,30.0
19.096665143966675,25.0
19.1007080078125,26.0
19.104190826416016,25.0
19.110697984695435,26.0
19.11537003517151,26.0
19.11980700492859,27.0
19.124324083328247,24.0
19.128262042999268,25.0
19.13227105140686,24.0
19.13628315925598,23.0
19.140429973602295,25.0
19.144240140914917,22.0
19.147907972335815,23.0
19.154502153396606,24.0
19.159213066101074,21.0
19.162869930267334,25.0
19.169517993927002,28.0
19.17457103729248,26.0
19.17834210395813,20.0
19.182140111923218,26.0
19.186114072799683,25.0
19.18996000289917,28.0
19.19677996635437,22.0
19.201607942581177,27.0
19.205086946487427,26.0
19.209424018859863,28.0
19.21301007270813,23.0
19.217035055160522,23.0
19.220628023147583,25.0
19.2254741191864,24.0
19.229060173034668,26.0
19.233734130859375,27.0
19.237356901168823,26.0
19.243662118911743,23.0
19.248995065689087,28.0
19.25300407409668,22.0
19.25719690322876,26.0
19.26171112060547,27.0
19.26864504814148,22.0
19.27398705482483,25.0
19.277775049209595,26.0
19.28148102760315,25.0
19.2888240814209,26.0
19.29351019859314,23.0
19.2971031665802,28.0
19.301496982574463,19.0
19.30602216720581,25.0
19.313305139541626,18.0
19.31775212287903,25.0
19.32144784927368,28.0
19.328088998794556,27.0
19.3353488445282,24.0
19.339689016342163,24.0
19.34664797782898,25.0
19.351133823394775,26.0
19.354849100112915,28.0
19.358996868133545,28.0
19.3628089427948,23.0
19.369143962860107,18.0
19.374045848846436,27.0
19.378040075302124,29.0
19.38182806968689,28.0
19.38858389854431,23.0
19.393049001693726,24.0
19.397010803222656,26.0
19.401525020599365,27.0
19.405232191085815,20.0
19.40945816040039,26.0
19.413072109222412,22.0
19.41923999786377,27.0
19.426940202713013,26.0
19.431330919265747,27.0
19.438213109970093,28.0
19.442625045776367,19.0
19.44678282737732,26.0
19.451207876205444,24.0
19.455275058746338,28.0
19.459611177444458,21.0
19.46321988105774,28.0
19.46720314025879,25.0
19.470947980880737,26.0
19.47738790512085,25.0
19.481954097747803,26.0
19.486172914505005,25.0
19.490046977996826,25.0
19.496783018112183,27.0
19.50132918357849,22.0
19.505006074905396,24.0
19.509320974349976,19.0
19.513184070587158,22.0
19.51742696762085,26.0
19.521063089370728,28.0
19.525548934936523,25.0
19.529011011123657,26.0
19.535243034362793,24.0
19.539884090423584,26.0
19.54412007331848,23.0
19.548057079315186,16.0
19.554924964904785,25.0
19.55955719947815,17.0
19.563258171081543,23.0
19.567485094070435,20.0
19.57120394706726,22.0
19.575413942337036,27.0
19.579177856445312,22.0
19.585528135299683,24.0
19.590151071548462,29.0
19.594322204589844,25.0
19.59833598136902,25.0
19.605040073394775,26.0
19.609275102615356,26.0
19.612907886505127,25.0
19.61689591407776,25.0
19.62045407295227,25.0
19.626567840576172,24.0
19.630579948425293,22.0
19.637681007385254,23.0
19.642071962356567,27.0
19.646057844161987,25.0
19.65012502670288,26.0
19.653841018676758,24.0
19.660279035568237,28.0
19.664873838424683,25.0
19.671815872192383,25.0
19.676209211349487,28.0
19.67983603477478,24.0
19.684444189071655,20.0
19.68830418586731,23.0
19.69256019592285,28.0
19.696314096450806,25.0
19.70063614845276,24.0
19.7042338848114,26.0
19.708558082580566,18.0
19.712256908416748,24.0
19.718564987182617,21.0
19.72318196296692,26.0
19.729873180389404,26.0
19.73439884185791,25.0
19.737853050231934,26.0
19.744338989257812,23.0
19.74874997138977,25.0
19.752685070037842,20.0
19.756508111953735,24.0
19.763288974761963,26.0
19.76765513420105,24.0
19.771234035491943,26.0
19.77524185180664,26.0
19.778913974761963,25.0
19.785189151763916,23.0
19.789762020111084,24.0
19.796711206436157,25.0
19.800861835479736,27.0
19.804888010025024,24.0
19.809217929840088,26.0
19.813210010528564,26.0
19.817594051361084,27.0
19.82137107849121,24.0
19.825786113739014,24.0
19.829437255859375,26.0
19.83435320854187,29.0
19.838083028793335,24.0
19.84220600128174,26.0
19.8466899394989,26.0
19.85163903236389,25.0
19.856245040893555,18.0
19.863527059555054,23.0
19.867830991744995,30.0
19.87151002883911,24.0
19.876008987426758,19.0
19.879570245742798,26.0
19.884406089782715,26.0
19.888903856277466,25.0
19.896655082702637,24.0
19.90205693244934,25.0
19.90665602684021,26.0
19.914840936660767,24.0
19.921720027923584,28.0
19.926185846328735,16.0
19.929819107055664,25.0
19.934218883514404,26.0
19.937891960144043,25.0
19.942226886749268,22.0
19.945971965789795,26.0
19.952374935150146,23.0
19.957229137420654,27.0
19.961241006851196,24.0
19.965086936950684,28.0
19.971703052520752,20.0
19.976135969161987,28.0
19.979655981063843,27.0
19.983690977096558,27.0
19.98735499382019,27.0
19.993623971939087,26.0
19.998192071914673,26.0
20.002378940582275,27.0
20.00601100921631,21.0
20.01305913925171,26.0
20.01737904548645,28.0
20.021010160446167,26.0
20.027241945266724,20.0
20.032108068466187,25.0
20.036107063293457,15.0
20.04043698310852,25.0
20.044560194015503,26.0
20.04849886894226,25.0
20.05491304397583,28.0
20.059360027313232,24.0
20.062971115112305,26.0
20.067139148712158,27.0
20.07099485397339,26.0
20.077519178390503,26.0
20.082197904586792,25.0
20.08671998977661,25.0
20.090604066848755,26.0
20.094688892364502,19.0
20.0986590385437,26.0
20.1027729511261,28.0
20.10684585571289,29.0
20.110990047454834,25.0
20.11479902267456,19.0
20.12136697769165,27.0
20.12594985961914,25.0
20.12983012199402,25.0
20.13407611846924,26.0
20.13791513442993,25.0
20.14216709136963,23.0
20.145946979522705,28.0
20.150552988052368,26.0
20.154479026794434,22.0
20.16090488433838,25.0
20.16571307182312,28.0
20.16975688934326,24.0
20.174000024795532,30.0
20.177799224853516,23.0
20.181602954864502,26.0
20.18827795982361,26.0
20.192578077316284,24.0
20.196248054504395,26.0
20.200296878814697,26.0
20.204485177993774,22.0
20.20943307876587,27.0
20.213150024414062,26.0
20.217591047286987,23.0
20.221996068954468,27.0
20.227101802825928,27.0
20.231687784194946,24.0
20.23585605621338,29.0
20.239777088165283,26.0
20.24724507331848,24.0
20.25426197052002,30.0
20.258780241012573,26.0
20.262617111206055,27.0
20.2688889503479,21.0
20.27349591255188,18.0
20.277847051620483,26.0
20.28186798095703,27.0
20.285982847213745,25.0
20.289849042892456,24.0
20.29671287536621,23.0
20.301458835601807,24.0
20.305155038833618,27.0
20.309391021728516,23.0
20.313369035720825,27.0
20.317205905914307,25.0
20.32112193107605,27.0
20.325572967529297,26.0
20.329201221466064,26.0
20.333660125732422,25.0
20.337273120880127,28.0
20.34169316291809,23.0
20.345459938049316,25.0
20.3518488407135,23.0
20.35724115371704,30.0
20.36211609840393,27.0
20.369381189346313,24.0
20.376982927322388,29.0
20.382212162017822,26.0
20.3870050907135,26.0
20.39339590072632,24.0
20.398138999938965,27.0
20.405187129974365,24.0
20.409586191177368,26.0
20.413233041763306,26.0
20.417294025421143,27.0
20.42092990875244,23.0
20.427221059799194,28.0
20.431769132614136,23.0
20.43838906288147,25.0
20.442977905273438,26.0
20.44654679298401,28.0
20.45062494277954,27.0
20.454508066177368,25.0
20.458678007125854,24.0
20.462368965148926,27.0
20.46890377998352,24.0
20.47355008125305,28.0
20.47773504257202,26.0
20.481621026992798,25.0
20.488022089004517,24.0
20.494214057922363,25.0
20.498674869537354,28.0
20.50265121459961,24.0
20.50642991065979,26.0
20.513023853302002,27.0
20.517348051071167,26.0
20.52093505859375,25.0
20.527379989624023,25.0
20.532029151916504,28.0
20.536538124084473,26.0
20.543440103530884,29.0
20.548123121261597,26.0
20.554673194885254,23.0
20.55911898612976,24.0
20.562859058380127,26.0
20.569517135620117,23.0
20.5765061378479,27.0
20.580687999725342,19.0
20.588000059127808,26.0
20.592010021209717,24.0
20.596198081970215,29.0
20.600343942642212,27.0
20.604021072387695,27.0
20.610093116760254,28.0
20.614519119262695,27.0
20.6210720539093,25.0
20.625570058822632,29.0
20.629371166229248,24.0
20.635742902755737,19.0
20.64020085334778,23.0
20.644425868988037,24.0
20.64836597442627,26.0
20.654994249343872,23.0
20.659292221069336,27.0
20.66294503211975,24.0
20.667246103286743,27.0
20.67106294631958,20.0
20.677327156066895,27.0
20.68173098564148,25.0
20.688535928726196,25.0
20.693022966384888,19.0
20.696732997894287,26.0
20.700873851776123,20.0
20.704622983932495,26.0
20.710724115371704,27.0
20.715299129486084,27.0
20.721897840499878,23.0
20.72649121284485,26.0
20.730303049087524,22.0
20.734303951263428,26.0
20.738204956054688,23.0
20.742364168167114,26.0
20.746163845062256,17.0
20.75060200691223,27.0
20.75433588027954,23.0
20.760561227798462,26.0
20.76519799232483,28.0
20.769284963607788,24.0
20.773174047470093,24.0
20.780184984207153,26.0
20.784720182418823,27.0
20.788940906524658,23.0
20.796146154403687,28.0
20.800673961639404,19.0
20.804423093795776,26.0
20.810632944107056,26.0
20.81514000892639,27.0
20.821572065353394,26.0
20.825938940048218,24.0
20.82962703704834,20.0
20.835995197296143,26.0
20.84041690826416,28.0
20.84474015235901,25.0
20.848670959472656,25.0
20.852816104888916,29.0
20.856558084487915,28.0
20.863192081451416,26.0
20.867698907852173,28.0
20.871426105499268,28.0
20.87575912475586,29.0
20.87947416305542,28.0
20.88595986366272,20.0
20.890753030776978,27.0
20.89507293701172,25.0
20.89878797531128,26.0
20.903151988983154,26.0
20.907201051712036,25.0
20.91110396385193,28.0
20.914937019348145,26.0
20.921618223190308,29.0
20.92618203163147,28.0
20.929856061935425,27.0
20.933940887451172,25.0
20.937651872634888,26.0
20.942044019699097,29.0
20.945631980895996,27.0
20.95017910003662,23.0
20.95375418663025,27.0
20.96005392074585,31.0
20.964587926864624,25.0
20.971564054489136,19.0
20.976053953170776,27.0
20.979835033416748,26.0
20.984220027923584,24.0
20.988009929656982,21.0
20.992387056350708,27.0
20.995954036712646,26.0
21.002214193344116,24.0
21.00701403617859,24.0
21.01112699508667,27.0
21.014997959136963,28.0
21.021634101867676,28.0
21.025877952575684,21.0
21.02951192855835,27.0
21.03374695777893,22.0
21.037235021591187,24.0
21.04361891746521,28.0
21.048258066177368,28.0
21.054810047149658,25.0
21.05953884124756,27.0
21.06331205368042,29.0
21.06769824028015,20.0
21.071511030197144,30.0
21.075953006744385,28.0
21.080317974090576,28.0
21.08471703529358,26.0
21.08847689628601,26.0
21.092868089675903,29.0
21.09700083732605,27.0
21.101319074630737,28.0
21.104921102523804,20.0
21.108967781066895,23.0
21.11321210861206,26.0
21.11801505088806,34.0
21.12226700782776,20.0
21.129841089248657,24.0
21.134196043014526,27.0
21.137699127197266,20.0
21.142324924468994,26.0
21.147111177444458,27.0
21.152254819869995,25.0
21.156774044036865,21.0
21.16185998916626,27.0
21.168362855911255,28.0
21.1724112033844,28.0
21.17936611175537,26.0
21.185588836669922,28.0
21.1899151802063,30.0
21.196457862854004,25.0
21.200868129730225,26.0
21.20450711250305,28.0
21.21103000640869,27.0
21.215431213378906,27.0
21.219265937805176,15.0
21.223079919815063,19.0
21.22998285293579,22.0
21.234307050704956,28.0
21.23780608177185,28.0
21.243944883346558,28.0
21.248394012451172,28.0
21.25491499900818,28.0
21.259382963180542,27.0
21.26330304145813,28.0
21.267135858535767,22.0
21.27109408378601,23.0
21.27557396888733,25.0
21.279354095458984,28.0
21.283756017684937,28.0
21.287313222885132,23.0
21.2936110496521,28.0
21.2982439994812,29.0
21.30477213859558,24.0
21.309282064437866,26.0
21.31297206878662,26.0
21.31717300415039,29.0
21.320887088775635,27.0
21.327327013015747,28.0
21.331979990005493,27.0
21.336179971694946,26.0
21.340102195739746,27.0
21.34429693222046,29.0
21.348383903503418,28.0
21.355103015899658,27.0
21.359745025634766,28.0
21.363332986831665,28.0
21.36736798286438,21.0
21.370872020721436,25.0
21.37707495689392,29.0
21.38155484199524,20.0
21.38573694229126,29.0
21.38954496383667,31.0
21.396015167236328,24.0
21.400471925735474,20.0
21.40389609336853,30.0
21.410132884979248,26.0
21.414578914642334,28.0
21.420800924301147,28.0
21.427194118499756,27.0
21.431857109069824,29.0
21.435943841934204,26.0
21.439781188964844,28.0
21.446245193481445,19.0
21.45048999786377,26.0
21.45411705970764,27.0
21.460327863693237,24.0
21.46466302871704,26.0
21.47120714187622,22.0
21.475337028503418,18.0
21.47883105278015,26.0
21.485095024108887,23.0
21.489546060562134,26.0
21.496199131011963,26.0
21.502877950668335,28.0
21.507649898529053,32.0
21.51147484779358,29.0
21.515462160110474,21.0
21.51921820640564,27.0
21.522994995117188,29.0
21.529425144195557,26.0
21.53584313392639,31.0
21.54034996032715,29.0
21.54433298110962,28.0
21.54828691482544,21.0
21.554452896118164,24.0
21.560688018798828,25.0
21.565131902694702,28.0
21.571647882461548,27.0
21.575740098953247,25.0
21.579463958740234,27.0
21.58356499671936,29.0
21.587367057800293,29.0
21.593758821487427,30.0
21.598236799240112,28.0
21.6046199798584,27.0
21.608965158462524,27.0
21.612469911575317,26.0
21.61888313293457,19.0
21.62318515777588,22.0
21.62943196296692,32.0
21.634034872055054,26.0
21.637523889541626,29.0
21.643703937530518,30.0
21.648195028305054,28.0
21.652124166488647,28.0
21.65553617477417,29.0
21.66300892829895,21.0
21.66843008995056,29.0
21.67280411720276,25.0
21.679933071136475,24.0
21.684240102767944,29.0
21.687819957733154,27.0
21.691925048828125,27.0
21.695483207702637,28.0
21.70142412185669,27.0
21.7052960395813,27.0
21.709489107131958,22.0
21.712905883789062,27.0
21.718929052352905,28.0
21.72334098815918,28.0
21.727297067642212,29.0
21.73111391067505,29.0
21.737341165542603,29.0
21.74385404586792,30.0
21.748353004455566,24.0
21.75464391708374,28.0
21.759100198745728,28.0
21.762758016586304,31.0
21.766873121261597,27.0
21.77053213119507,23.0
21.77660894393921,28.0
21.780504941940308,28.0
21.78718400001526,27.0
21.793526887893677,28.0
21.797959804534912,28.0
21.80427312850952,29.0
21.810375928878784,29.0
21.814670085906982,29.0
21.820975065231323,27.0
21.827332019805908,20.0
21.831677198410034,19.0
21.835772037506104,28.0
21.839601039886475,20.0
21.846094131469727,22.0
21.850386142730713,29.0
21.85412287712097,20.0
21.860307931900024,24.0
21.864824056625366,25.0
21.871070861816406,29.0
21.875346183776855,29.0
21.87915587425232,28.0
21.88539218902588,30.0
21.89010000228882,25.0
21.896668910980225,26.0
21.901122093200684,28.0
21.904814958572388,28.0
21.90904402732849,29.0
21.913016080856323,30.0
21.916852951049805,28.0
21.92095398902893,25.0
21.92729902267456,30.0
21.931857109069824,29.0
21.938750982284546,28.0
21.942954063415527,25.0
21.946961164474487,30.0
21.951332092285156,28.0
21.955087184906006,29.0
21.959375143051147,27.0
21.96288800239563,26.0
21.96891689300537,29.0
21.97329878807068,21.0
21.97954297065735,27.0
21.98387598991394,25.0
21.98780107498169,26.0
21.992106914520264,21.0
21.995972156524658,25.0
22.002422094345093,27.0
22.006850004196167,26.0
22.01078701019287,28.0
22.014835834503174,21.0
22.0212299823761,25.0
22.025423049926758,28.0
22.0291109085083,21.0
22.035298109054565,26.0
22.039865016937256,31.0
22.046206951141357,26.0
22.050722122192383,29.0
22.054620027542114,32.0
22.05872416496277,29.0
22.062354803085327,25.0
22.068444967269897,19.0
22.072933197021484,29.0
22.079370975494385,25.0
22.083725929260254,25.0
22.087419033050537,27.0
22.093751907348633,32.0
22.098270893096924,30.0
22.104570150375366,28.0
22.110962867736816,31.0
22.115392923355103,28.0
22.11929488182068,28.0
22.123042106628418,26.0
22.127104997634888,29.0
22.13114309310913,29.0
22.137704849243164,24.0
22.144208192825317,27.0
22.14891004562378,19.0
22.153038024902344,26.0
22.157031059265137,29.0
22.16096305847168,21.0
22.164755821228027,26.0
22.171000003814697,26.0
22.17543911933899,21.0
22.179049015045166,30.0
22.185153007507324,26.0
22.189714908599854,29.0
22.194068908691406,26.0
22.19802212715149,28.0
22.20461893081665,29.0
22.21102499961853,30.0
22.21549701690674,29.0
22.21965503692627,30.0
22.223620176315308,27.0
22.227641105651855,27.0
22.23187804222107,29.0
22.2358820438385,27.0
22.2397780418396,30.0
22.246190071105957,30.0
22.250556230545044,27.0
22.25436305999756,28.0
22.260517120361328,26.0
22.265027046203613,26.0
22.271342039108276,30.0
22.275879859924316,20.0
22.27943706512451,25.0
22.285446166992188,28.0
22.290146112442017,22.0
22.29434323310852,27.0
22.29818320274353,26.0
22.304848194122314,30.0
22.30912709236145,29.0
22.312775135040283,30.0
22.316882133483887,29.0
22.32042384147644,21.0
22.326509952545166,26.0
22.330459117889404,27.0
22.33740210533142,30.0
22.343460083007812,30.0
22.348026037216187,31.0
22.354162216186523,24.0
22.36044216156006,30.0
22.36488914489746,30.0
22.37110710144043,27.0
22.375301122665405,25.0
22.37880301475525,27.0
22.384804010391235,30.0
22.388736963272095,25.0
22.393073081970215,30.0
22.396595001220703,31.0
22.400602102279663,29.0
22.404029846191406,28.0
22.41015601158142,28.0
22.414050102233887,22.0
22.42086911201477,27.0
22.4272780418396,25.0
22.43157196044922,25.0
22.437855005264282,26.0
22.444098949432373,27.0
22.448426008224487,30.0
22.45442509651184,28.0
22.460508823394775,27.0
22.464815139770508,27.0
22.470956087112427,24.0
22.47732400894165,28.0
22.482045888900757,27.0
22.486007928848267,26.0
22.489714860916138,28.0
22.496437072753906,30.0
22.50101399421692,23.0
22.504791021347046,28.0
22.50903010368347,31.0
22.51254391670227,30.0
22.518737077713013,31.0
22.523033142089844,29.0
22.5293071269989,30.0
22.535687923431396,29.0
22.540149927139282,19.0
22.543957948684692,25.0
22.54777216911316,31.0
22.55398917198181,21.0
22.560297966003418,28.0
22.564682006835938,31.0
22.570913076400757,28.0
22.57711696624756,30.0
22.58145308494568,29.0
22.58824110031128,31.0
22.592509031295776,27.0
22.596271991729736,32.0
22.600430011749268,25.0
22.604058980941772,29.0
22.610265016555786,32.0
22.61466383934021,21.0
22.6212899684906,28.0
22.625793933868408,28.0
22.629497051239014,29.0
22.63353705406189,24.0
22.637173891067505,30.0
22.643217086791992,24.0
22.64735984802246,26.0
22.65431499481201,28.0
22.658631801605225,31.0
22.662282943725586,28.0
22.66853404045105,22.0
22.673043966293335,21.0
22.679592847824097,29.0
22.68384313583374,29.0
22.68745994567871,30.0
22.693848133087158,29.0
22.698785066604614,21.0
22.705184936523438,27.0
22.709980010986328,27.0
22.713497161865234,28.0
22.718456029891968,27.0
22.722170114517212,28.0
22.726710081100464,27.0
22.730224132537842,28.0
22.734313011169434,30.0
22.73779296875,28.0
22.744395971298218,21.0
22.748850107192993,29.0
22.753682851791382,25.0
22.76048707962036,28.0
22.764935970306396,25.0
22.771761178970337,29.0
22.776477813720703,25.0
22.780212879180908,29.0
22.784416913986206,21.0
22.788269996643066,30.0
22.79216718673706,19.0
22.796144008636475,28.0
22.80120587348938,27.0
22.805137157440186,29.0
22.81015706062317,25.0
22.813701152801514,27.0
22.818950176239014,26.0
22.822919130325317,26.0
22.829775094985962,29.0
22.833904027938843,26.0
22.83749294281006,28.0
22.844157218933105,25.0
22.848618030548096,26.0
22.853466033935547,30.0
22.860277891159058,30.0
22.864943027496338,23.0
22.8693528175354,27.0
22.87317204475403,29.0
22.880064010620117,21.0
22.884835958480835,28.0
22.888584852218628,29.0
22.893354892730713,25.0
22.897737979888916,28.0
22.904816150665283,28.0
