time,emg
0.5077030658721924,572.0
0.5162079334259033,643.0
0.5229201316833496,521.0
0.528900146484375,570.0
0.5370230674743652,618.0
0.5431430339813232,526.0
0.5508239269256592,570.0
0.5585269927978516,634.0
0.5650310516357422,579.0
0.5699830055236816,588.0
0.5778288841247559,654.0
0.5835542678833008,530.0
0.5917809009552002,529.0
0.5981020927429199,532.0
0.6034510135650635,582.0
0.6083190441131592,526.0
0.6150491237640381,580.0
0.6203351020812988,576.0
0.6264450550079346,577.0
0.6315221786499023,580.0
0.6378791332244873,578.0
0.6441512107849121,613.0
0.6510570049285889,571.0
0.6573371887207031,568.0
0.6621150970458984,576.0
0.6711702346801758,523.0
0.6769931316375732,568.0
0.6820559501647949,569.0
0.688143253326416,569.0
0.6935272216796875,618.0
0.6999380588531494,572.0
0.7047832012176514,517.0
0.7092700004577637,565.0
0.7166202068328857,572.0
0.7244000434875488,572.0
0.7305371761322021,514.0
0.73604416847229,568.0
0.7450129985809326,568.0
0.7540953159332275,570.0
0.759058952331543,572.0
0.7668900489807129,571.0
0.7729170322418213,566.0
0.7782611846923828,538.0
0.7843883037567139,540.0
0.7894611358642578,566.0
0.7945370674133301,564.0
0.8003499507904053,558.0
0.8054502010345459,509.0
0.810413122177124,548.0
0.815406084060669,549.0
0.8208301067352295,551.0
0.8264751434326172,549.0
0.8321270942687988,555.0
0.8375811576843262,558.0
0.8434450626373291,557.0
0.8492400646209717,508.0
0.8540511131286621,617.0
0.8585491180419922,627.0
0.862990140914917,637.0
0.8684461116790771,517.0
0.8737261295318604,571.0
0.8785910606384277,573.0
0.8869872093200684,574.0
0.891772985458374,568.0
0.8998041152954102,569.0
0.9081699848175049,575.0
0.9159750938415527,575.0
0.9243080615997314,585.0
0.9323301315307617,574.0
0.9408688545227051,576.0
0.9486799240112305,577.0
0.9545390605926514,574.0
0.9594361782073975,571.0
0.9666938781738281,572.0
0.9729101657867432,576.0
0.9774670600891113,572.0
0.9823298454284668,643.0
0.9867920875549316,530.0
0.9949290752410889,562.0
1.0027620792388916,565.0
1.0107700824737549,575.0
1.0164060592651367,570.0
1.0219299793243408,542.0
1.0272510051727295,576.0
1.0325489044189453,578.0
1.037369966506958,583.0
1.045673131942749,627.0
1.0540120601654053,574.0
1.0597620010375977,560.0
1.064871072769165,587.0
1.0704278945922852,584.0
1.0755059719085693,585.0
1.0829851627349854,585.0
1.0913622379302979,638.0
1.0977411270141602,571.0
1.1027569770812988,558.0
1.1119470596313477,562.0
1.1175320148468018,565.0
1.123500108718872,588.0
1.129145860671997,549.0
1.1379179954528809,556.0
1.1434130668640137,555.0
1.151118278503418,553.0
1.1585259437561035,558.0
1.1666591167449951,599.0
1.172827959060669,565.0
1.1786818504333496,552.0
1.1883420944213867,559.0
1.1931579113006592,603.0
1.1986629962921143,602.0
1.2036521434783936,559.0
1.2091352939605713,515.0
1.2158410549163818,543.0
1.2253620624542236,544.0
1.232384204864502,491.0
1.2387070655822754,587.0
1.2441370487213135,548.0
1.2505731582641602,550.0
1.256072998046875,552.0
1.261970043182373,606.0
1.2674009799957275,513.0
1.2733290195465088,543.0
1.2786431312561035,489.0
1.2847111225128174,593.0
1.2915501594543457,541.0
1.2995250225067139,540.0
1.306105136871338,606.0
1.3110711574554443,542.0
1.3171610832214355,543.0
1.325639009475708,548.0
1.333017110824585,552.0
1.3385610580444336,556.0
1.344405174255371,560.0
1.353787899017334,622.0
1.3594410419464111,551.0
1.3648290634155273,572.0
1.3694312572479248,567.0
1.3754010200500488,593.0
1.3827881813049316,638.0
1.3918170928955078,569.0
1.3981351852416992,570.0
1.4035580158233643,574.0
1.409257173538208,575.0
1.415276050567627,589.0
1.4210450649261475,566.0
1.426861047744751,523.0
1.4335591793060303,578.0
1.4390990734100342,533.0
1.444366216659546,560.0
1.4526691436767578,524.0
1.4584550857543945,553.0
1.4660160541534424,551.0
1.4722001552581787,568.0
1.4769980907440186,555.0
1.483186960220337,628.0
1.4915359020233154,509.0
1.4975061416625977,557.0
1.50272798538208,614.0
1.5088751316070557,570.0
1.5143260955810547,574.0
1.5206260681152344,582.0
1.525848150253296,646.0
1.5317120552062988,605.0
1.537682056427002,590.0
1.5432651042938232,588.0
1.5491950511932373,635.0
1.5548522472381592,579.0
1.5598080158233643,577.0
1.5652830600738525,588.0
1.5702180862426758,628.0
1.5751309394836426,527.0
1.5828869342803955,574.0
1.5883941650390625,567.0
1.593459129333496,514.0
1.5980570316314697,571.0
1.6025171279907227,604.0
1.6069140434265137,561.0
1.6118850708007812,573.0
1.6193630695343018,541.0
1.6273250579833984,587.0
1.6328520774841309,598.0
1.63749098777771,575.0
1.645833969116211,574.0
1.6538739204406738,646.0
1.6586520671844482,634.0
1.6664299964904785,576.0
1.6722650527954102,614.0
1.67677903175354,636.0
1.6822569370269775,518.0
1.6868460178375244,540.0
1.695152997970581,574.0
1.7032849788665771,558.0
1.711993932723999,546.0
1.717284917831421,574.0
1.7244951725006104,579.0
1.7307519912719727,579.0
1.7361359596252441,606.0
1.7450010776519775,568.0
1.7534899711608887,570.0
1.7584242820739746,522.0
1.7627060413360596,547.0
1.7684271335601807,562.0
1.7736809253692627,570.0
1.7782111167907715,570.0
1.786156177520752,576.0
1.7944300174713135,578.0
1.7999341487884521,576.0
1.8049070835113525,584.0
1.8100991249084473,582.0
1.815519094467163,577.0
1.8203351497650146,577.0
1.8288841247558594,577.0
1.8350460529327393,648.0
1.8409640789031982,538.0
1.8464782238006592,584.0
1.8523881435394287,587.0
1.8580071926116943,591.0
1.863476037979126,658.0
1.8689632415771484,570.0
1.8750369548797607,652.0
1.8805670738220215,530.0
1.8856821060180664,571.0
1.891252040863037,594.0
1.8968210220336914,531.0
1.9028890132904053,588.0
1.9108731746673584,656.0
1.9171011447906494,530.0
1.922140121459961,592.0
1.9273171424865723,646.0
1.9326961040496826,531.0
1.9373509883880615,565.0
1.9427580833435059,597.0
1.9492249488830566,585.0
1.955031156539917,592.0
1.9655749797821045,637.0
1.97135591506958,587.0
1.977180004119873,643.0
1.9831061363220215,561.0
1.9906198978424072,586.0
1.9966280460357666,591.0
2.0022521018981934,592.0
2.0075690746307373,569.0
2.0124082565307617,577.0
2.0230050086975098,567.0
2.0284721851348877,520.0
2.034464120864868,562.0
2.0399229526519775,519.0
2.0444250106811523,633.0
2.050394296646118,557.0
2.0578250885009766,556.0
2.0631282329559326,557.0
2.0688891410827637,559.0
2.073996067047119,557.0
2.078918933868408,555.0
2.0860841274261475,502.0
2.0922250747680664,545.0
2.0998480319976807,554.0
2.1054811477661133,609.0
2.1117639541625977,548.0
2.1201460361480713,546.0
2.1284260749816895,547.0
2.1367340087890625,541.0
2.1458580493927,508.0
2.151057004928589,524.0
2.1565120220184326,551.0
2.1612000465393066,527.0
2.169025182723999,552.0
2.1744980812072754,553.0
2.18003511428833,539.0
2.1848740577697754,545.0
2.190032958984375,548.0
2.1950840950012207,615.0
2.206538200378418,617.0
2.2120258808135986,548.0
2.2181739807128906,578.0
2.2235910892486572,530.0
2.22849702835083,519.0
2.239107131958008,607.0
2.2450971603393555,547.0
2.2506351470947266,542.0
2.256174087524414,541.0
2.2612311840057373,590.0
2.2668612003326416,580.0
2.2741541862487793,543.0
2.280039072036743,495.0
2.2849769592285156,497.0
2.2912850379943848,496.0
2.2968101501464844,521.0
2.3017191886901855,558.0
2.3066582679748535,558.0
2.315385103225708,557.0
2.321732997894287,573.0
2.326770067214966,514.0
2.332202196121216,566.0
2.3384931087493896,572.0
2.346550226211548,571.0
2.352013111114502,638.0
2.357861042022705,537.0
2.3657989501953125,579.0
2.3740811347961426,573.0
2.380566120147705,571.0
2.3882219791412354,533.0
2.393887996673584,572.0
2.400315999984741,639.0
2.4062130451202393,567.0
2.411555290222168,567.0
2.417393922805786,565.0
2.4229230880737305,587.0
2.4275991916656494,521.0
2.435732126235962,566.0
2.441859245300293,649.0
2.4473471641540527,646.0
2.451907157897949,585.0
2.457585096359253,530.0
2.4627652168273926,587.0
2.4681811332702637,640.0
2.473262071609497,582.0
2.4783549308776855,526.0
2.48368501663208,575.0
2.488619089126587,563.0
2.4938929080963135,574.0
2.4993879795074463,578.0
2.504930257797241,634.0
2.50954008102417,575.0
2.5140061378479004,640.0
2.518554210662842,568.0
2.5232462882995605,561.0
2.527449131011963,618.0
2.5317771434783936,560.0
2.5372631549835205,532.0
2.54256010055542,563.0
2.549278974533081,562.0
2.5541110038757324,559.0
2.5622689723968506,511.0
2.5694448947906494,552.0
2.5770790576934814,559.0
2.5801360607147217,502.0
2.5848140716552734,563.0
2.5914392471313477,557.0
2.5996439456939697,557.0
2.6076440811157227,554.0
2.613483190536499,563.0
2.6178860664367676,506.0
2.6249330043792725,506.0
2.6324210166931152,556.0
2.6375303268432617,559.0
2.6454601287841797,563.0
2.651289224624634,593.0
2.6584091186523438,552.0
2.666088104248047,557.0
2.6716370582580566,553.0
2.6772689819335938,543.0
2.683885097503662,548.0
2.689028263092041,547.0
2.693190097808838,556.0
2.698802947998047,501.0
2.7032570838928223,559.0
2.7107410430908203,560.0
2.715776205062866,580.0
2.7208259105682373,632.0
2.725759983062744,562.0
2.730372190475464,565.0
2.73511004447937,561.0
2.740082025527954,562.0
2.745195150375366,564.0
2.75333309173584,558.0
2.761244058609009,561.0
2.7691190242767334,565.0
2.7745659351348877,582.0
2.7801101207733154,568.0
2.7850289344787598,561.0
2.790158271789551,567.0
2.795322895050049,555.0
2.8027641773223877,563.0
2.8105831146240234,537.0
2.815999984741211,553.0
2.8214521408081055,562.0
2.8264410495758057,569.0
2.8331501483917236,643.0
2.837858200073242,517.0
2.8429808616638184,567.0
2.850391149520874,567.0
2.855997085571289,570.0
2.862274169921875,511.0
2.8704001903533936,614.0
2.8755102157592773,564.0
2.8820841312408447,615.0
2.8875489234924316,612.0
2.8933708667755127,626.0
2.898348093032837,564.0
2.9032211303710938,549.0
2.910452127456665,560.0
2.9149551391601562,547.0
2.919126033782959,541.0
2.923300266265869,559.0
2.9287171363830566,557.0
2.933432102203369,553.0
2.9378421306610107,599.0
2.9423601627349854,576.0
2.949059247970581,500.0
2.9544520378112793,542.0
2.9621572494506836,591.0
2.96787691116333,498.0
2.973184108734131,512.0
2.978339195251465,481.0
2.9861772060394287,491.0
2.9938480854034424,529.0
2.9993181228637695,505.0
3.0049521923065186,606.0
3.009972095489502,533.0
3.014961004257202,533.0
3.020155906677246,600.0
3.0282928943634033,556.0
3.036105155944824,518.0
3.043941020965576,536.0
3.0491690635681152,599.0
3.0540759563446045,527.0
3.059209108352661,604.0
3.0666980743408203,540.0
3.0752830505371094,539.0
3.0812110900878906,551.0
3.0855839252471924,524.0
3.0901830196380615,466.0
3.0943870544433594,479.0
3.102384090423584,488.0
3.1078920364379883,512.0
3.113375186920166,517.0
3.1189520359039307,523.0
3.123725175857544,555.0
3.1286191940307617,521.0
3.133622169494629,499.0
3.140371084213257,535.0
3.1460208892822266,579.0
3.1509971618652344,516.0
3.1587212085723877,537.0
3.1650540828704834,547.0
3.1702311038970947,546.0
3.1789052486419678,542.0
3.186861038208008,620.0
3.1950161457061768,498.0
3.203428268432617,539.0
3.2120330333709717,546.0
3.2199649810791016,552.0
3.2278921604156494,548.0
3.233715057373047,543.0
3.2418341636657715,615.0
3.2497119903564453,564.0
3.257890224456787,563.0
3.2626702785491943,567.0
3.2702531814575195,572.0
3.27750301361084,641.0
3.2825400829315186,526.0
3.2878921031951904,571.0
3.292210102081299,511.0
3.2994089126586914,558.0
3.304337978363037,566.0
3.3089330196380615,563.0
3.3157451152801514,567.0
3.321240186691284,641.0
3.3271892070770264,605.0
3.3323299884796143,537.0
3.3372740745544434,573.0
3.342374086380005,632.0
3.3495850563049316,514.0
3.3575780391693115,567.0
3.3630778789520264,579.0
3.368894100189209,523.0
3.3737869262695312,563.0
3.378566026687622,580.0
3.383829116821289,585.0
3.3911449909210205,641.0
3.396181106567383,577.0
3.401499032974243,575.0
3.4086270332336426,578.0
3.4162421226501465,640.0
3.4216561317443848,566.0
3.426643133163452,566.0
3.4318459033966064,568.0
3.436676263809204,583.0
3.4453389644622803,566.0
3.4527060985565186,614.0
3.461148977279663,503.0
3.4672341346740723,552.0
3.475377082824707,559.0
3.4836912155151367,532.0
3.490133047103882,508.0
3.4953649044036865,566.0
3.503892183303833,555.0
3.5099170207977295,555.0
3.5148701667785645,629.0
3.5199382305145264,496.0
3.5274879932403564,552.0
3.5328030586242676,555.0
3.537271022796631,517.0
3.545233964920044,543.0
3.5512800216674805,551.0
3.5566301345825195,550.0
3.5617990493774414,502.0
3.5693631172180176,566.0
3.5769190788269043,549.0
3.582406997680664,527.0
3.5878751277923584,500.0
3.592844247817993,497.0
3.59787917137146,543.0
3.6027610301971436,549.0
3.6112022399902344,549.0
3.6162939071655273,607.0
3.6205320358276367,543.0
3.62762188911438,539.0
3.635545253753662,617.0
3.640209913253784,543.0
3.645238161087036,548.0
3.652601957321167,507.0
3.658271074295044,549.0
3.6658551692962646,552.0
3.6711151599884033,557.0
3.6762850284576416,557.0
3.681209087371826,557.0
3.6858551502227783,559.0
3.6906940937042236,558.0
3.695812940597534,615.0
3.7009549140930176,530.0
3.708498001098633,608.0
3.716628074645996,604.0
3.7240781784057617,553.0
3.7296080589294434,554.0
3.735520124435425,613.0
3.7403810024261475,524.0
3.7457969188690186,539.0
3.7507410049438477,554.0
3.7555110454559326,560.0
3.76006817817688,620.0
3.7651889324188232,508.0
3.7703702449798584,552.0
3.7778420448303223,564.0
3.785861015319824,532.0
3.794374942779541,551.0
3.7999329566955566,550.0
3.8041889667510986,623.0
3.812530040740967,548.0
3.820413112640381,552.0
3.8275980949401855,590.0
3.835599184036255,519.0
3.84125018119812,512.0
3.847012996673584,551.0
3.8512461185455322,551.0
3.858181953430176,618.0
3.8661091327667236,495.0
3.8743791580200195,547.0
3.879871129989624,621.0
3.8855812549591064,512.0
3.8905789852142334,519.0
3.8951351642608643,550.0
3.90226411819458,495.0
3.907597064971924,549.0
3.9123332500457764,554.0
3.9199981689453125,556.0
3.9273722171783447,611.0
3.932340145111084,550.0
3.9373819828033447,548.0
3.9449901580810547,594.0
3.952125072479248,506.0
3.9577841758728027,482.0
3.9630560874938965,529.0
3.9681448936462402,530.0
3.9736862182617188,532.0
3.978511095046997,596.0
3.9858949184417725,530.0
3.990934133529663,557.0
3.995619058609009,564.0
4.000678062438965,515.0
4.00757622718811,532.0
4.015865087509155,585.0
4.02149510383606,512.0
4.0263590812683105,526.0
4.031749963760376,523.0
4.037596940994263,531.0
4.043399095535278,542.0
4.049037218093872,544.0
4.054103136062622,614.0
4.059001922607422,508.0
4.066756248474121,543.0
4.074568033218384,547.0
4.083048105239868,586.0
4.0912652015686035,510.0
4.09674596786499,501.0
4.102191925048828,519.0
4.107181072235107,580.0
4.112433910369873,558.0
4.120043039321899,540.0
4.127655029296875,561.0
4.136004209518433,634.0
4.141417026519775,568.0
4.146046161651611,624.0
4.153900146484375,547.0
4.1621620655059814,619.0
4.170102119445801,526.0
4.178483009338379,559.0
4.186148166656494,563.0
4.19431209564209,583.0
4.202347040176392,510.0
4.2077929973602295,532.0
4.2136640548706055,554.0
4.21894097328186,562.0
4.223582029342651,579.0
4.228494167327881,509.0
4.2361321449279785,547.0
4.244165897369385,556.0
4.249626874923706,551.0
4.25514817237854,554.0
4.260058164596558,556.0
4.265130043029785,625.0
4.270018100738525,509.0
4.275012969970703,560.0
4.282831192016602,615.0
4.2877280712127686,506.0
4.292588233947754,544.0
4.299973011016846,553.0
4.307594060897827,566.0
4.316250324249268,565.0
4.321977853775024,569.0
4.32672119140625,627.0
4.332432985305786,585.0
4.337823152542114,574.0
4.342972040176392,573.0
4.349998235702515,622.0
4.358383893966675,531.0
4.363922119140625,540.0
4.370258092880249,539.0
4.378570079803467,540.0
4.38718318939209,603.0
4.392297983169556,481.0
4.3994200229644775,532.0
4.407810211181641,541.0
4.416173219680786,537.0
4.421807289123535,534.0
4.427057981491089,532.0
4.431689977645874,605.0
4.437348127365112,541.0
4.442368030548096,537.0
4.4508020877838135,612.0
4.457468032836914,605.0
4.463022232055664,478.0
4.468351125717163,532.0
4.475590944290161,531.0
4.481765031814575,601.0
4.487153053283691,531.0
4.495922088623047,509.0
4.501712083816528,531.0
4.5073370933532715,593.0
4.511857986450195,488.0
4.519912004470825,543.0
4.527701139450073,547.0
4.5354719161987305,562.0
4.540844202041626,531.0
4.546087026596069,531.0
4.551017999649048,529.0
4.558293104171753,525.0
4.565023183822632,593.0
4.569366216659546,492.0
4.577441215515137,547.0
4.582755088806152,528.0
4.587992191314697,522.0
4.593220233917236,531.0
4.598893165588379,479.0
4.604406118392944,539.0
4.610053062438965,549.0
4.615960121154785,493.0
4.620509147644043,590.0
4.629415988922119,544.0
4.635031223297119,544.0
4.63974404335022,550.0
4.645565986633301,606.0
4.653809070587158,545.0
4.658982038497925,569.0
4.663981199264526,588.0
4.668724060058594,552.0
4.675854206085205,551.0
4.683902978897095,546.0
4.689946889877319,497.0
4.694899082183838,574.0
4.702552080154419,611.0
4.708101987838745,553.0
4.713577032089233,551.0
4.718585252761841,556.0
4.7241880893707275,624.0
4.72883415222168,557.0
4.737065076828003,558.0
4.74189019203186,558.0
4.749857187271118,555.0
4.755679130554199,551.0
4.760578155517578,553.0
4.765442132949829,554.0
4.770337104797363,560.0
4.779029130935669,622.0
4.7841010093688965,508.0
4.789038181304932,623.0
4.794114112854004,499.0
4.799727916717529,545.0
4.804049968719482,548.0
4.812349081039429,621.0
4.818369150161743,495.0
4.823095083236694,545.0
4.828463315963745,547.0
4.835959196090698,545.0
4.84504508972168,531.0
4.8539910316467285,538.0
4.859081029891968,541.0
4.867023944854736,543.0
4.8754260540008545,534.0
4.88371205329895,532.0
4.890269041061401,520.0
4.895413160324097,480.0
4.903878927230835,554.0
4.912945985794067,479.0
4.918069124221802,580.0
4.923807144165039,476.0
4.929733991622925,498.0
4.935611009597778,519.0
4.940824270248413,574.0
4.945387125015259,535.0
4.953498125076294,535.0
4.96111798286438,528.0
4.9670140743255615,547.0
4.974550008773804,603.0
4.982456207275391,530.0
4.988115072250366,538.0
4.993438005447388,526.0
5.000911235809326,527.0
5.006559133529663,524.0
5.011747121810913,520.0
5.019442081451416,516.0
5.027478218078613,521.0
5.035875082015991,526.0
5.041443109512329,523.0
5.046916961669922,525.0
5.051725149154663,521.0
5.056943893432617,496.0
5.062116861343384,571.0
5.067139148712158,523.0
5.072399139404297,534.0
5.0772318840026855,584.0
5.083554267883301,540.0
5.089874029159546,514.0
5.094383239746094,541.0
5.103549003601074,539.0
5.112573146820068,541.0
5.120978116989136,535.0
5.126691102981567,539.0
5.133764982223511,540.0
5.142017126083374,520.0
5.150599956512451,539.0
5.1563560962677,542.0
5.16120719909668,517.0
5.169414043426514,537.0
5.177403926849365,604.0
5.183099031448364,564.0
5.188657999038696,509.0
5.193281173706055,542.0
5.198743104934692,547.0
5.203521013259888,505.0
5.211622953414917,489.0
5.219457149505615,552.0
5.227792024612427,547.0
5.2335569858551025,625.0
5.2412941455841064,554.0
5.249157905578613,553.0
5.2546210289001465,557.0
5.2605650424957275,565.0
5.266777276992798,567.0
5.274127960205078,545.0
5.2792840003967285,629.0
5.285025119781494,560.0
5.290052175521851,501.0
5.295258283615112,576.0
5.3040220737457275,554.0
5.308763027191162,630.0
5.316141128540039,600.0
5.321660995483398,506.0
5.327225208282471,554.0
5.333326101303101,616.0
5.33803391456604,506.0
5.34309720993042,545.0
5.348259210586548,573.0
5.352720022201538,540.0
5.360706090927124,491.0
5.365880250930786,535.0
5.371315956115723,535.0
5.377220869064331,525.0
5.382841110229492,602.0
5.388041019439697,614.0
5.393283128738403,498.0
5.400213003158569,516.0
5.408014297485352,543.0
5.413518190383911,541.0
5.419906139373779,599.0
5.428396224975586,535.0
5.434301137924194,540.0
5.441648960113525,602.0
5.449734926223755,481.0
5.457329034805298,530.0
5.463539123535156,503.0
5.468449115753174,536.0
5.475584030151367,537.0
5.481738090515137,550.0
5.48654317855835,605.0
5.494329214096069,543.0
5.502346992492676,531.0
5.507720947265625,527.0
5.513294219970703,532.0
5.518234968185425,590.0
5.523761034011841,528.0
5.528557062149048,520.0
5.533477067947388,527.0
5.537834167480469,535.0
5.543854236602783,575.0
5.549750089645386,534.0
5.554548025131226,482.0
5.5600340366363525,527.0
5.5651421546936035,536.0
5.570080041885376,539.0
5.578580141067505,612.0
5.584391117095947,518.0
5.592158079147339,536.0
5.598052263259888,601.0
5.603518962860107,509.0
5.611936092376709,537.0
5.617927074432373,544.0
5.623401165008545,546.0
5.628296136856079,556.0
5.635837078094482,543.0
5.641664028167725,524.0
5.646852254867554,550.0
5.651220083236694,509.0
5.65856409072876,571.0
5.667096138000488,562.0
5.675212144851685,540.0
5.683076858520508,547.0
5.690893173217773,545.0
5.69672703742981,543.0
5.701612234115601,599.0
5.706423044204712,604.0
5.7122321128845215,615.0
5.717518091201782,529.0
5.725046157836914,530.0
5.7326600551605225,505.0
5.741286039352417,488.0
5.749613046646118,584.0
5.757375001907349,548.0
5.762748956680298,567.0
5.768333196640015,504.0
5.773641109466553,536.0
5.7784881591796875,614.0
5.786854982376099,535.0
5.79564905166626,551.0
5.800296068191528,544.0
5.80747127532959,577.0
5.812964200973511,609.0
5.818868160247803,506.0
5.824491024017334,534.0
5.82912015914917,542.0
5.837182998657227,543.0
5.842271089553833,591.0
5.849436044692993,606.0
5.854946136474609,479.0
5.860528945922852,480.0
5.865132093429565,530.0
5.870403289794922,533.0
5.875660181045532,530.0
5.883010149002075,528.0
5.8905510902404785,523.0
5.896139144897461,519.0
5.901722192764282,516.0
5.907225131988525,510.0
5.911962985992432,511.0
5.916882038116455,515.0
5.921267032623291,512.0
5.92660117149353,517.0
5.932369947433472,551.0
5.938292026519775,521.0
5.9437901973724365,579.0
5.949092149734497,515.0
5.953278064727783,524.0
5.96068000793457,524.0
5.966188192367554,519.0
5.971642971038818,591.0
5.976572036743164,460.0
5.981398105621338,517.0
5.986588954925537,518.0
5.994333982467651,493.0
5.999898195266724,503.0
6.004199981689453,519.0
6.011747121810913,473.0
6.019079923629761,525.0
6.023620128631592,540.0
6.029348134994507,580.0
6.03735613822937,548.0
6.043396949768066,547.0
6.0481181144714355,551.0
6.0533552169799805,549.0
6.060695171356201,509.0
6.066030263900757,536.0
6.070895195007324,542.0
6.07618522644043,613.0
6.081677198410034,541.0
6.086965084075928,533.0
6.095696926116943,507.0
6.101740121841431,597.0
6.106957197189331,544.0
6.11214017868042,580.0
6.12115216255188,475.0
6.127193212509155,530.0
6.132545232772827,478.0
6.1387810707092285,535.0
6.144140243530273,544.0
6.149795055389404,547.0
6.1546080112457275,551.0
6.160955905914307,556.0
6.169061899185181,568.0
6.17474627494812,542.0
6.17972731590271,563.0
6.184708118438721,509.0
6.192146062850952,561.0
6.199913024902344,561.0
6.2085230350494385,566.0
6.214249134063721,567.0
6.218964099884033,492.0
6.223499059677124,494.0
6.227684259414673,503.0
6.235668182373047,548.0
6.241436958312988,494.0
6.249437093734741,544.0
6.2545270919799805,548.0
6.259037017822266,556.0
6.266573190689087,591.0
6.272238254547119,529.0
6.277292251586914,532.0
6.282417058944702,542.0
6.28706693649292,477.0
6.295286178588867,534.0
6.30060601234436,535.0
6.308764934539795,533.0
6.315631866455078,530.0
6.321130037307739,520.0
6.326351881027222,527.0
6.3329339027404785,525.0
6.340871095657349,475.0
6.346370220184326,516.0
6.352258205413818,586.0
6.357632160186768,492.0
6.361822128295898,519.0
6.3694610595703125,525.0
6.377081871032715,523.0
6.382780075073242,517.0
6.387397050857544,466.0
6.393380165100098,514.0
6.398577928543091,518.0
6.403505086898804,530.0
6.41119122505188,525.0
6.419384241104126,536.0
6.427342176437378,593.0
6.431990146636963,604.0
6.437333106994629,475.0
6.44585108757019,525.0
6.451487064361572,522.0
6.456187963485718,466.0
6.462230205535889,542.0
6.467201232910156,510.0
6.474822044372559,511.0
6.48064112663269,512.0
6.485043048858643,472.0
6.489391088485718,525.0
6.493669033050537,579.0
6.498152017593384,466.0
6.503443002700806,509.0
6.508913040161133,527.0
6.516205072402954,532.0
6.521738052368164,536.0
6.527321100234985,531.0
6.531933069229126,537.0
6.536825180053711,542.0
6.544486045837402,530.0
6.550635099411011,490.0
6.557886123657227,504.0
6.563396215438843,611.0
6.5688841342926025,488.0
6.574002981185913,541.0
6.578931093215942,546.0
6.587170124053955,552.0
6.591759920120239,545.0
6.596018075942993,513.0
6.601492166519165,587.0
6.606997013092041,551.0
6.612045049667358,553.0
6.62064003944397,546.0
6.6285481452941895,551.0
6.634113073348999,616.0
6.641441106796265,525.0
6.649631023406982,544.0
6.657945156097412,545.0
6.664132118225098,538.0
6.668955087661743,617.0
6.673887014389038,555.0
6.678837060928345,558.0
6.687117099761963,558.0
6.693058252334595,558.0
6.69849705696106,550.0
6.703927040100098,549.0
6.711949110031128,560.0
6.719328165054321,548.0
6.728567123413086,600.0
6.7367072105407715,531.0
6.743970155715942,544.0
6.749074935913086,540.0
6.753491163253784,532.0
6.758084297180176,555.0
6.762469053268433,608.0
6.767652273178101,538.0
6.773486137390137,532.0
6.777834177017212,532.0
6.785827159881592,532.0
6.791548013687134,475.0
6.799615144729614,528.0
6.805108070373535,534.0
6.810542106628418,529.0
6.815958023071289,470.0
6.82053804397583,528.0
6.82524299621582,532.0
6.832139015197754,490.0
6.837283134460449,495.0
6.845911026000977,609.0
6.851589918136597,484.0
6.858705997467041,529.0
6.8669562339782715,537.0
6.874551057815552,538.0
6.879478216171265,537.0
6.884440183639526,525.0
6.889572858810425,527.0
6.8939971923828125,598.0
6.898715019226074,527.0
6.903963088989258,478.0
6.911623001098633,582.0
6.918749094009399,468.0
6.924239158630371,532.0
6.929795265197754,601.0
6.934723138809204,582.0
6.939930200576782,528.0
6.945113182067871,533.0
6.952644109725952,477.0
6.959875106811523,494.0
6.966699123382568,527.0
6.971817970275879,535.0
6.976598024368286,532.0
6.982264280319214,536.0
6.986936092376709,607.0
6.99403715133667,516.0
6.999721050262451,535.0
7.004507064819336,540.0
7.009807109832764,529.0
7.016899108886719,472.0
7.024633884429932,528.0
7.031880140304565,535.0
7.037336111068726,536.0
7.044973134994507,538.0
7.049237012863159,543.0
7.054028034210205,615.0
7.0587379932403564,600.0
7.063855171203613,537.0
7.069002151489258,547.0
7.073662996292114,547.0
7.078700065612793,542.0
7.083629131317139,486.0
7.091227054595947,541.0
7.099036931991577,537.0
7.104515075683594,491.0
7.112030982971191,502.0
7.119208097457886,572.0
7.124849081039429,596.0
7.130327224731445,533.0
7.135061025619507,551.0
7.140089273452759,505.0
7.14524507522583,500.0
7.1522510051727295,509.0
7.157027244567871,533.0
7.161487102508545,528.0
7.168420314788818,492.0
7.173151016235352,510.0
7.177572965621948,525.0
7.181922197341919,531.0
7.186908006668091,524.0
7.194084882736206,531.0
7.199136018753052,529.0
7.204480171203613,528.0
7.210137128829956,475.0
7.214969873428345,473.0
7.220441102981567,534.0
7.227782964706421,532.0
7.235095024108887,528.0
7.240994215011597,526.0
7.245923280715942,532.0
7.253827095031738,536.0
7.261059284210205,534.0
7.268521070480347,534.0
7.274052858352661,527.0
7.280210971832275,479.0
7.285343170166016,532.0
7.290255308151245,555.0
7.294867038726807,531.0
7.302578926086426,542.0
7.3106911182403564,534.0
7.315759897232056,538.0
7.320946931838989,540.0
7.325709104537964,608.0
7.332592964172363,531.0
7.338029146194458,513.0
7.343893051147461,541.0
7.349065065383911,530.0
7.353647947311401,529.0
7.358577013015747,517.0
7.365615129470825,592.0
7.371405124664307,531.0
7.376986980438232,532.0
7.382063865661621,537.0
7.387023210525513,534.0
7.391654968261719,480.0
7.3959081172943115,540.0
7.400909185409546,540.0
7.407553195953369,552.0
7.4125471115112305,544.0
7.4204699993133545,544.0
7.426426887512207,548.0
7.432121276855469,621.0
7.436879873275757,529.0
7.444512128829956,525.0
7.452146053314209,535.0
7.457557201385498,614.0
7.463119268417358,545.0
7.468205213546753,546.0
7.473164081573486,545.0
7.478382110595703,547.0
7.4870381355285645,556.0
7.492516994476318,595.0
7.500112056732178,547.0
7.50824499130249,552.0
7.5166730880737305,604.0
7.522838115692139,507.0
7.528230905532837,517.0
7.5355610847473145,547.0
7.540362119674683,504.0
7.545746088027954,608.0
7.5539772510528564,553.0
7.561835050582886,549.0
7.5671350955963135,569.0
7.573780059814453,558.0
7.582237005233765,558.0
7.58808708190918,558.0
7.593044996261597,634.0
7.598241090774536,548.0
7.603485107421875,497.0
7.6084980964660645,531.0
7.612879276275635,544.0
7.61793327331543,548.0
7.624876022338867,539.0
7.630169153213501,544.0
7.634881019592285,546.0
7.640160083770752,572.0
7.645655155181885,545.0
7.652883052825928,569.0
7.661018133163452,543.0
7.669116973876953,542.0
7.674560070037842,508.0
7.680170059204102,538.0
7.685426950454712,539.0
7.690071105957031,535.0
7.695240020751953,538.0
7.70385217666626,537.0
7.712119102478027,543.0
7.7182230949401855,540.0
7.723306179046631,537.0
7.728153228759766,548.0
7.735722064971924,533.0
7.740304946899414,528.0
7.744445085525513,546.0
7.751538991928101,534.0
7.756749153137207,481.0
7.761750221252441,508.0
7.768959999084473,536.0
7.774420976638794,537.0
7.779970169067383,532.0
7.785046100616455,512.0
7.791819095611572,530.0
7.7991931438446045,520.0
7.80762505531311,530.0
7.815036058425903,497.0
7.8204522132873535,529.0
7.826507091522217,529.0
7.831350088119507,526.0
7.836616039276123,504.0
7.841494083404541,535.0
7.84595799446106,535.0
7.853398084640503,539.0
7.8599371910095215,588.0
7.864284992218018,535.0
7.869196176528931,487.0
7.873918056488037,540.0
7.878673076629639,542.0
7.884034156799316,592.0
7.8914031982421875,485.0
7.897402048110962,532.0
7.902209043502808,489.0
7.907958030700684,543.0
7.913820028305054,538.0
7.918527126312256,543.0
7.925074100494385,544.0
7.932471036911011,547.0
7.937993049621582,551.0
7.943907260894775,614.0
7.949233055114746,523.0
7.954643964767456,532.0
7.958827018737793,540.0
7.965403079986572,539.0
7.970607280731201,538.0
7.978574275970459,578.0
7.986647129058838,542.0
7.994563102722168,538.0
8.003695249557495,535.0
8.008890867233276,510.0
8.015624046325684,536.0
8.02114200592041,547.0
8.027221202850342,551.0
8.032303094863892,558.0
8.036684036254883,522.0
8.043758153915405,513.0
8.048882007598877,523.0
8.053398132324219,556.0
8.060993194580078,504.0
8.068891048431396,541.0
8.073557138442993,537.0
8.077786922454834,536.0
8.085503101348877,574.0
8.090215921401978,527.0
8.09549593925476,526.0
8.10345721244812,536.0
8.111098051071167,531.0
8.118574142456055,523.0
8.123958110809326,524.0
8.129464149475098,524.0
8.137840032577515,507.0
8.142863273620605,479.0
8.150021076202393,539.0
8.156979084014893,525.0
8.162644147872925,528.0
8.167636156082153,529.0
8.17496919631958,531.0
8.180206298828125,531.0
8.186596870422363,530.0
8.194202899932861,478.0
8.199300289154053,532.0
8.203588962554932,533.0
8.210639953613281,484.0
8.216193199157715,530.0
8.221168041229248,602.0
8.227167129516602,532.0
8.232115983963013,473.0
8.237076997756958,530.0
8.244118213653564,534.0
8.249181985855103,537.0
8.253775119781494,524.0
8.261096954345703,537.0
8.266946077346802,466.0
8.2740318775177,520.0
8.279464960098267,524.0
8.284571886062622,587.0
8.291575193405151,525.0
8.29906415939331,501.0
8.304118156433105,597.0
8.311828136444092,551.0
8.319055318832397,500.0
8.324306011199951,615.0
8.32933521270752,533.0
8.334558963775635,554.0
8.339339017868042,599.0
8.34367322921753,540.0
8.348207950592041,539.0
8.353523015975952,542.0
8.36108922958374,518.0
8.369231224060059,538.0
8.377007961273193,608.0
8.382532119750977,562.0
8.386928081512451,549.0
8.394099950790405,541.0
8.398291110992432,524.0
8.403917074203491,546.0
8.412598133087158,537.0
8.418452024459839,486.0
8.42325210571289,546.0
8.42848014831543,552.0
8.437385082244873,620.0
8.445645093917847,503.0
8.451735258102417,555.0
8.457325220108032,618.0
8.462539196014404,597.0
8.467519044876099,557.0
8.474676132202148,545.0
8.482460021972656,601.0
8.48871111869812,604.0
8.493782043457031,539.0
8.499608278274536,540.0
8.50474500656128,611.0
8.509879112243652,512.0
8.514663934707642,538.0
8.51914095878601,540.0
8.523840188980103,571.0
8.529081106185913,484.0
8.533947944641113,542.0
8.54084300994873,598.0
8.546862125396729,548.0
8.551200151443481,538.0
8.55868911743164,477.0
8.567328214645386,535.0
8.572524070739746,528.0
8.57738709449768,530.0
8.58250904083252,530.0
8.587712049484253,525.0
8.592386245727539,530.0
8.60032606124878,574.0
8.608655214309692,596.0
8.616477012634277,520.0
8.624823093414307,466.0
8.630269050598145,518.0
8.634751081466675,516.0
8.64182710647583,520.0
8.650411128997803,518.0
8.658239126205444,517.0
8.665877103805542,518.0
8.671113014221191,524.0
8.675672054290771,568.0
8.683846950531006,600.0
8.69248104095459,522.0
8.69809103012085,599.0
8.702861070632935,523.0
8.711072206497192,595.0
8.716974258422852,523.0
8.72531509399414,473.0
8.73299789428711,520.0
8.740985870361328,543.0
8.74762511253357,484.0
8.752248048782349,529.0
8.757270097732544,480.0
8.761860132217407,597.0
8.77083706855774,593.0
8.77974009513855,496.0
8.784625053405762,522.0
8.790858030319214,526.0
8.796341180801392,532.0
8.802227973937988,598.0
8.808171033859253,519.0
8.81682014465332,532.0
8.82355523109436,587.0
8.829216003417969,534.0
8.83755111694336,535.0
8.843350172042847,530.0
8.848238229751587,534.0
8.853787899017334,522.0
8.859344959259033,538.0
8.86696195602417,512.0
8.875001907348633,503.0
8.883989095687866,541.0
8.890053033828735,598.0
8.89548397064209,532.0
8.903854131698608,555.0
8.91252613067627,557.0
8.918361186981201,551.0
8.923793077468872,507.0
8.929773092269897,610.0
8.935169219970703,548.0
8.94084095954895,490.0
8.946290016174316,537.0
8.952093124389648,507.0
8.95757007598877,506.0
8.963040113449097,556.0
8.968894958496094,567.0
8.974571228027344,511.0
8.979269981384277,567.0
8.984859943389893,561.0
8.989816188812256,625.0
8.994294166564941,564.0
9.00268006324768,568.0
9.00835108757019,508.0
9.016613006591797,554.0
9.024970054626465,555.0
9.033344030380249,561.0
9.041202068328857,625.0
9.046745300292969,502.0
9.05288314819336,539.0
9.060896158218384,556.0
9.066629886627197,553.0
9.072193145751953,589.0
9.078542232513428,504.0
9.086912155151367,557.0
9.095439910888672,514.0
9.10036301612854,550.0
9.107100009918213,553.0
9.115620136260986,554.0
9.123976945877075,554.0
9.129859209060669,553.0
9.134902000427246,624.0
9.14229416847229,522.0
9.14832592010498,547.0
9.152821063995361,553.0
9.161636114120483,491.0
9.169559240341187,551.0
9.177188873291016,550.0
9.182568073272705,578.0
9.18838906288147,555.0
9.19381308555603,556.0
9.199571132659912,547.0
9.204366207122803,591.0
9.209272146224976,550.0
9.216707229614258,554.0
9.22308611869812,553.0
9.22881007194519,577.0
9.237561225891113,512.0
9.24573802947998,578.0
9.2539541721344,594.0
9.259346008300781,564.0
9.26426100730896,567.0
9.26929521560669,532.0
9.276902914047241,568.0
9.28248405456543,570.0
9.287676095962524,569.0
9.29270625114441,511.0
9.300194263458252,541.0
9.306298971176147,567.0
9.311079025268555,566.0
9.318814992904663,627.0
9.32429814338684,571.0
9.329825162887573,632.0
9.334905862808228,560.0
9.3423011302948,583.0
9.348107099533081,527.0
9.353570222854614,578.0
9.361836194992065,585.0
9.370187044143677,637.0
9.377624273300171,525.0
9.385200023651123,655.0
9.39096212387085,527.0
9.395745038986206,573.0
9.40389108657837,572.0
9.411710977554321,572.0
9.419305086135864,569.0
9.427304029464722,567.0
9.432562112808228,519.0
9.438048124313354,561.0
9.443586111068726,592.0
9.449285984039307,636.0
9.454553127288818,545.0
9.46053409576416,567.0
9.466355085372925,566.0
9.471211194992065,536.0
9.475947141647339,556.0
9.482838153839111,574.0
9.490324974060059,573.0
9.496495246887207,612.0
9.501346111297607,561.0
9.5087251663208,503.0
9.517301082611084,565.0
9.523353099822998,552.0
9.528248071670532,552.0
9.536590099334717,556.0
9.544185161590576,525.0
9.549651145935059,627.0
9.557171106338501,570.0
9.563372135162354,524.0
9.567703247070312,547.0
9.575253009796143,548.0
9.583940267562866,614.0
9.59189510345459,515.0
9.599775075912476,553.0
9.60548210144043,581.0
9.609922170639038,574.0
9.614974975585938,503.0
9.619816064834595,559.0
9.628290176391602,499.0
9.635955095291138,527.0
9.643758296966553,543.0
9.649333000183105,543.0
9.654107093811035,540.0
9.66227102279663,540.0
9.670178174972534,541.0
9.678375959396362,543.0
9.685793161392212,533.0
9.691415071487427,540.0
9.696124076843262,544.0
9.701716184616089,576.0
9.706882238388062,568.0
9.711840152740479,549.0
9.716718196868896,602.0
9.72423505783081,558.0
9.732850074768066,528.0
9.741321086883545,542.0
9.748908042907715,547.0
9.754433155059814,545.0
9.760061025619507,555.0
9.76550817489624,553.0
9.770149946212769,502.0
9.77879810333252,598.0
9.786553859710693,590.0
9.794210195541382,617.0
9.799505949020386,538.0
9.806865930557251,553.0
9.812836170196533,511.0
9.818304061889648,557.0
9.823952913284302,563.0
9.82868504524231,562.0
9.833999872207642,512.0
9.840744972229004,558.0
9.845807313919067,536.0
9.853641033172607,561.0
9.860780239105225,644.0
9.868532180786133,552.0
9.873762130737305,560.0
9.879258155822754,541.0
9.885025024414062,559.0
9.88978910446167,564.0
9.89495301246643,587.0
9.902607917785645,510.0
9.911691188812256,574.0
9.919294118881226,556.0
9.927107095718384,573.0
9.932605981826782,579.0
9.93819808959961,547.0
9.943034887313843,567.0
9.948293924331665,644.0
9.953455924987793,570.0
9.961623191833496,574.0
9.968948125839233,578.0
9.974384069442749,515.0
9.98000431060791,570.0
9.985466003417969,635.0
9.990263223648071,504.0
9.995187997817993,549.0
10.002835035324097,547.0
10.010270118713379,551.0
10.0156991481781,544.0
10.021174192428589,550.0
10.026122093200684,519.0
10.033092260360718,540.0
10.04162311553955,540.0
10.050004005432129,490.0
10.058313131332397,535.0
10.065909147262573,531.0
10.070998191833496,537.0
10.078397989273071,537.0
10.08583402633667,612.0
10.091325044631958,507.0
10.099004030227661,543.0
10.107281923294067,515.0
10.113079071044922,545.0
10.118858098983765,545.0
10.122749090194702,544.0
10.127399921417236,551.0
10.13243293762207,601.0
10.13673210144043,547.0
10.14405608177185,549.0
10.149502992630005,549.0
10.155025959014893,485.0
10.159964084625244,533.0
10.165166139602661,500.0
10.170243263244629,529.0
10.177582263946533,532.0
10.183950185775757,564.0
10.191347122192383,499.0
10.199749946594238,505.0
10.207727909088135,521.0
10.215906143188477,524.0
10.221168994903564,601.0
10.225876092910767,509.0
10.233083963394165,533.0
10.241515159606934,517.0
10.249695062637329,550.0
10.258301973342896,553.0
10.266442060470581,554.0
10.274707078933716,496.0
10.283123970031738,544.0
10.291774034500122,501.0
10.29775595664978,526.0
10.302098035812378,555.0
10.307271003723145,505.0
10.3122398853302,550.0
10.317710161209106,556.0
10.325093030929565,582.0
10.331769227981567,558.0
10.337147951126099,560.0
10.345798015594482,563.0
10.353953123092651,616.0
10.362613201141357,562.0
10.368346929550171,638.0
10.374220132827759,514.0
10.37885594367981,563.0
10.387241125106812,565.0
10.395369052886963,619.0
10.402118921279907,643.0
10.406814098358154,563.0
10.411695957183838,539.0
10.417281150817871,568.0
10.422693967819214,632.0
10.426908016204834,529.0
10.432373046875,571.0
10.436659097671509,571.0
10.444128036499023,572.0
10.450299978256226,632.0
10.458068132400513,533.0
10.466009140014648,554.0
10.470919132232666,511.0
10.475975036621094,564.0
10.483370065689087,542.0
10.491413116455078,559.0
10.497456073760986,560.0
10.501919031143188,562.0
10.506761074066162,628.0
10.511041164398193,504.0
10.519108295440674,552.0
10.524782180786133,557.0
10.530230045318604,596.0
10.535584211349487,549.0
10.540558099746704,554.0
10.546117067337036,560.0
10.551422119140625,558.0
10.556530952453613,564.0
10.560879230499268,537.0
10.568871021270752,527.0
10.574415922164917,556.0
10.579937219619751,591.0
10.58550500869751,524.0
10.590603113174438,548.0
10.595141887664795,601.0
10.602874994277954,539.0
10.610647201538086,544.0
10.616508960723877,544.0
10.62435793876648,553.0
10.630703926086426,550.0
10.636229038238525,554.0
10.644520044326782,627.0
10.653642177581787,579.0
10.662374019622803,553.0
10.670554876327515,539.0
10.678299903869629,545.0
10.68685007095337,497.0
10.692523002624512,548.0
10.698127269744873,549.0
10.703330039978027,549.0
10.71209192276001,622.0
10.720218896865845,598.0
10.728317022323608,544.0
10.736172199249268,547.0
10.744925022125244,555.0
10.75222897529602,574.0
10.758252143859863,567.0
10.762906312942505,562.0
10.76809310913086,513.0
10.775235176086426,568.0
10.781410217285156,567.0
10.78669810295105,543.0
10.79423713684082,568.0
10.803799152374268,564.0
10.812725067138672,604.0
10.817527055740356,563.0
10.824685096740723,561.0
10.833015203475952,563.0
10.841315269470215,557.0
10.850159168243408,559.0
10.856137990951538,559.0
10.86052417755127,548.0
10.865711212158203,528.0
10.871176958084106,556.0
10.876628160476685,561.0
10.882419109344482,550.0
10.887732982635498,560.0
10.892693042755127,558.0
10.897899150848389,566.0
10.902777910232544,616.0
10.910928010940552,515.0
10.918731212615967,513.0
10.924443006515503,519.0
10.932374000549316,564.0
10.9374840259552,569.0
10.942770004272461,568.0
10.950018167495728,555.0
10.955745220184326,612.0
10.960555076599121,604.0
10.966423034667969,510.0
10.971457242965698,552.0
10.976662158966064,616.0
10.982185125350952,550.0
10.98729395866394,511.0
10.995129108428955,552.0
11.003273010253906,560.0
11.011672258377075,539.0
11.019029140472412,548.0
11.024713039398193,550.0
11.02914810180664,548.0
11.034120082855225,544.0
11.04126501083374,521.0
11.04947304725647,535.0
11.057116985321045,535.0
11.062824964523315,539.0
11.068151235580444,480.0
11.074865102767944,533.0
11.083263158798218,604.0
11.091123104095459,546.0
11.096619129180908,503.0
11.102160930633545,539.0
11.107832193374634,542.0
11.113165140151978,536.0
11.118113040924072,487.0
11.123270034790039,544.0
11.128665208816528,551.0
11.137178897857666,546.0
11.145149946212769,541.0
11.153572082519531,492.0
11.161097049713135,506.0
11.1699960231781,540.0
11.177783250808716,543.0
11.185884952545166,545.0
11.19402813911438,617.0
11.199620246887207,618.0
11.207460165023804,594.0
11.21315622329712,498.0
11.218828201293945,542.0
11.2240731716156,542.0
11.228775978088379,544.0
11.236171007156372,546.0
11.241925954818726,551.0
11.249114274978638,559.0
11.257385969161987,552.0
11.26288104057312,572.0
11.268457174301147,553.0
11.273169994354248,555.0
11.277924299240112,562.0
11.283199071884155,569.0
11.28755521774292,541.0
11.29512095451355,643.0
11.303699016571045,508.0
11.31083607673645,557.0
11.316338062286377,560.0
11.32221508026123,558.0
11.327439308166504,562.0
11.333277940750122,561.0
11.340681076049805,561.0
11.345908164978027,603.0
11.35169529914856,536.0
11.356622219085693,556.0
11.361732959747314,600.0
11.368673086166382,555.0
11.37334418296814,557.0
11.377398014068604,494.0
11.38217306137085,545.0
11.386575937271118,506.0
11.392313957214355,551.0
11.398966073989868,549.0
11.40411925315857,552.0
11.409807920455933,560.0
11.415482997894287,567.0
11.420336961746216,539.0
11.428983211517334,513.0
11.437250137329102,566.0
11.445314168930054,558.0
11.45266604423523,537.0
11.460444927215576,556.0
11.465842008590698,551.0
11.471410036087036,544.0
11.47631311416626,545.0
11.481911182403564,549.0
11.48717713356018,600.0
11.495076179504395,528.0
11.502377033233643,542.0
11.507740020751953,537.0
11.513291120529175,547.0
11.518368005752563,534.0
11.524253129959106,528.0
11.529256105422974,557.0
11.53405213356018,531.0
11.540983200073242,533.0
11.549495220184326,532.0
11.557570219039917,591.0
11.565629005432129,497.0
11.571156978607178,500.0
11.57718825340271,531.0
11.58226203918457,526.0
11.586771011352539,520.0
11.593921184539795,522.0
11.599517107009888,523.0
11.603937149047852,520.0
11.611780881881714,512.0
11.619261980056763,526.0
11.627380132675171,529.0
11.63277292251587,566.0
11.638257026672363,522.0
11.643273115158081,504.0
11.648689031600952,523.0
11.653740167617798,475.0
11.658959150314331,529.0
11.666643142700195,483.0
11.673232078552246,605.0
11.678739070892334,499.0
11.68773102760315,535.0
11.692697286605835,576.0
11.699599266052246,579.0
11.707978010177612,550.0
11.7154700756073,557.0
11.720964193344116,509.0
11.726753234863281,560.0
11.732363224029541,528.0
11.737436056137085,560.0
11.742119073867798,565.0
11.749062061309814,630.0
11.754033088684082,541.0
11.759275197982788,611.0
11.766637086868286,598.0
11.772807121276855,573.0
11.777657985687256,520.0
11.785712003707886,573.0
11.790540218353271,569.0
11.79495096206665,578.0
11.800519943237305,559.0
11.80797290802002,511.0
11.816251993179321,569.0
11.823993921279907,511.0
11.829477071762085,638.0
11.8350191116333,582.0
11.841660976409912,555.0
11.849055051803589,623.0
11.854551076889038,531.0
11.86047911643982,567.0
11.865764856338501,557.0
11.870287895202637,569.0
11.87752103805542,569.0
11.882946252822876,633.0
11.891119956970215,639.0
11.899485111236572,544.0
11.904803276062012,636.0
11.910398960113525,551.0
11.916001081466675,577.0
11.92128324508667,579.0
11.9271821975708,607.0
11.933372974395752,632.0
11.941020965576172,522.0
11.944140195846558,515.0
11.9496750831604,569.0
11.954959869384766,579.0
11.960270166397095,503.0
11.96543002128601,557.0
11.970784187316895,505.0
11.979275226593018,503.0
11.985568046569824,500.0
11.991631269454956,528.0
11.996763944625854,554.0
12.003140926361084,551.0
12.012110233306885,576.0
12.020241022109985,533.0
12.028796911239624,546.0
12.034687995910645,546.0
12.042195081710815,547.0
12.050666093826294,555.0
12.056863069534302,547.0
12.061676025390625,540.0
12.068875074386597,550.0
12.074342012405396,620.0
12.079750061035156,561.0
12.085222005844116,552.0
12.090837001800537,554.0
12.096644878387451,552.0
12.101774215698242,552.0
12.106688022613525,548.0
12.11197805404663,619.0
12.11994194984436,537.0
12.128951072692871,609.0
12.136790037155151,493.0
12.145081281661987,532.0
12.153249025344849,534.0
12.160823106765747,534.0
12.166225910186768,611.0
12.171764135360718,587.0
12.176639080047607,485.0
12.181957960128784,495.0
12.18708610534668,520.0
12.195044994354248,547.0
12.204015254974365,555.0
12.2118239402771,505.0
12.220575094223022,623.0
12.2291898727417,609.0
12.234756231307983,558.0
12.240817070007324,554.0
12.246271133422852,616.0
12.252153158187866,547.0
12.257368087768555,559.0
12.261752128601074,557.0
12.269430160522461,591.0
12.277530908584595,613.0
12.282894134521484,554.0
12.29082202911377,627.0
12.296192169189453,513.0
12.301182985305786,552.0
12.308379888534546,556.0
12.314013957977295,529.0
12.319498062133789,561.0
12.327514171600342,505.0
12.33302903175354,556.0
12.33737826347351,556.0
12.346176147460938,551.0
12.352155923843384,507.0
12.357646226882935,534.0
12.362074136734009,558.0
12.36932110786438,563.0
12.377012014389038,562.0
12.382447957992554,623.0
12.388246059417725,512.0
12.393476963043213,532.0
12.398867130279541,564.0
12.40431809425354,561.0
12.409263134002686,582.0
12.414830207824707,501.0
12.419256210327148,548.0
12.42713189125061,546.0
12.432559251785278,548.0
12.43802809715271,549.0
12.442974090576172,617.0
12.448882102966309,551.0
12.453793048858643,584.0
12.460649967193604,548.0
12.465950012207031,489.0
12.470458984375,546.0
12.478820085525513,492.0
12.487213134765625,600.0
12.495658159255981,611.0
12.501641988754272,586.0
12.507528066635132,489.0
12.51279902458191,507.0
12.517730236053467,537.0
12.524418115615845,504.0
12.529612064361572,588.0
12.534384965896606,502.0
12.541626930236816,485.0
12.547985076904297,484.0
12.55283808708191,516.0
12.561206102371216,529.0
12.569276094436646,610.0
12.577560186386108,603.0
12.5854332447052,552.0
12.591123104095459,526.0
12.599830150604248,575.0
12.607746124267578,541.0
12.616028070449829,584.0
12.6214280128479,483.0
12.626981973648071,539.0
12.63273024559021,545.0
12.63735294342041,484.0
12.646152019500732,540.0
12.652192115783691,604.0
12.657723903656006,539.0
12.662122011184692,593.0
12.67029619216919,514.0
12.679100036621094,496.0
12.685004234313965,515.0
12.69033408164978,537.0
12.695341110229492,536.0
12.703842163085938,544.0
12.711769104003906,514.0
12.7190580368042,552.0
12.72461223602295,556.0
12.732399940490723,615.0
12.741276979446411,622.0
12.749773263931274,619.0
12.75776219367981,620.0
12.763248920440674,543.0
12.768893957138062,544.0
12.774064064025879,541.0
12.779667139053345,537.0
12.784379005432129,554.0
12.789940118789673,615.0
12.795350074768066,500.0
12.80147099494934,547.0
12.806945085525513,612.0
12.811714172363281,578.0
12.816872119903564,553.0
12.824235200881958,489.0
12.829921007156372,550.0
12.834862232208252,622.0
12.839739084243774,516.0
12.844858884811401,550.0
12.853457927703857,548.0
12.861716032028198,556.0
12.869179010391235,575.0
12.874606132507324,519.0
12.880075216293335,512.0
12.885027170181274,568.0
12.889829874038696,556.0
12.895486116409302,510.0
12.903611898422241,553.0
12.912387132644653,542.0
12.920770168304443,553.0
12.929376125335693,553.0
12.93503713607788,616.0
12.940277099609375,493.0
12.945353031158447,615.0
12.952852010726929,541.0
12.960750102996826,544.0
12.96628713607788,557.0
12.973986148834229,593.0
12.982793092727661,488.0
12.990838050842285,523.0
12.996021032333374,530.0
13.001230239868164,521.0
13.008450031280518,518.0
13.01446008682251,525.0
13.020021200180054,525.0
13.029030084609985,524.0
13.034966230392456,547.0
13.040894031524658,521.0
13.046051263809204,523.0
13.053967952728271,525.0
13.06168818473816,527.0
13.069518089294434,534.0
13.077751159667969,551.0
13.085988283157349,534.0
13.094332933425903,536.0
13.102733135223389,531.0
13.111002922058105,489.0
13.116799116134644,534.0
13.124342203140259,529.0
13.129600048065186,528.0
13.134998083114624,519.0
13.1423921585083,520.0
13.148696184158325,527.0
13.154417991638184,530.0
13.159232139587402,485.0
13.166307210922241,517.0
13.174322128295898,533.0
13.179884195327759,542.0
13.185506105422974,607.0
13.19161605834961,563.0
13.196413040161133,543.0
13.201098203659058,577.0
13.208128213882446,551.0
13.213840961456299,554.0
13.21818494796753,549.0
13.22367000579834,620.0
13.228424072265625,550.0
13.23354196548462,589.0
13.240536212921143,621.0
13.246316194534302,600.0
13.25136113166809,567.0
13.256947994232178,551.0
13.26183819770813,500.0
13.269195079803467,549.0
13.274374961853027,531.0
13.278960943222046,542.0
13.286977052688599,543.0
13.294388055801392,540.0
13.30229902267456,532.0
13.308044195175171,542.0
13.315675020217896,548.0
13.321060180664062,555.0
13.325569152832031,547.0
13.332289218902588,620.0
13.337761163711548,543.0
13.343378067016602,560.0
13.348876237869263,569.0
13.353790044784546,574.0
13.361167907714844,580.0
13.369277954101562,571.0
13.378711223602295,565.0
13.38784408569336,563.0
13.393839120864868,552.0
13.399528980255127,548.0
13.404866218566895,546.0
13.410393238067627,549.0
13.416138172149658,537.0
13.4238600730896,538.0
13.430060148239136,538.0
13.434996128082275,543.0
13.440410137176514,521.0
13.445261240005493,543.0
13.452762126922607,505.0
13.461230278015137,581.0
13.467332124710083,518.0
13.475222110748291,495.0
13.48375916481018,492.0
13.491472005844116,555.0
13.499238967895508,497.0
13.504738092422485,508.0
13.510483026504517,545.0
13.515535116195679,547.0
13.520248174667358,546.0
13.527446031570435,546.0
13.533793210983276,540.0
13.542055130004883,537.0
13.548732042312622,538.0
13.554054975509644,547.0
13.562048196792603,518.0
13.569406986236572,620.0
13.57679796218872,569.0
13.581486225128174,485.0
13.586787223815918,495.0
13.59503698348999,569.0
13.602266311645508,531.0
13.608027935028076,481.0
13.615830183029175,549.0
13.621371030807495,600.0
13.627197980880737,599.0
13.63323187828064,526.0
13.640893936157227,532.0
13.646377086639404,536.0
13.652196884155273,541.0
13.657733917236328,548.0
13.66234803199768,552.0
13.670087099075317,552.0
13.677654027938843,559.0
13.686582088470459,551.0
13.694336175918579,553.0
13.702148199081421,550.0
13.707536935806274,550.0
13.711979150772095,617.0
13.71949815750122,560.0
13.728327989578247,610.0
13.736850023269653,604.0
13.745077133178711,507.0
13.75255823135376,543.0
13.757894039154053,581.0
13.763401985168457,543.0
13.768562078475952,542.0
13.773722887039185,513.0
13.778459072113037,557.0
13.787384271621704,548.0
13.792757034301758,558.0
13.799942016601562,617.0
13.807509183883667,623.0
13.812235116958618,552.0
13.820487976074219,560.0
13.828819990158081,503.0
13.834301948547363,557.0
13.841367244720459,550.0
13.846849203109741,551.0
13.853193044662476,504.0
13.860681056976318,601.0
13.866051197052002,552.0
13.870371103286743,598.0
13.878374099731445,504.0
13.884427070617676,541.0
13.88973593711853,546.0
13.895179033279419,551.0
13.899860143661499,548.0
13.904236078262329,611.0
13.909123182296753,487.0
13.916414976119995,527.0
13.924458026885986,523.0
13.932419061660767,490.0
13.937875986099243,511.0
13.942898988723755,519.0
13.950221061706543,516.0
13.958055019378662,524.0
13.965584993362427,526.0
13.971043109893799,601.0
13.976718187332153,526.0
13.982789039611816,487.0
13.98789095878601,531.0
13.995857954025269,528.0
14.001538038253784,490.0
14.006854057312012,528.0
14.012160062789917,525.0
14.017121076583862,527.0
14.024895191192627,526.0
14.03107213973999,527.0
14.037067174911499,537.0
14.042055130004883,540.0
14.050543308258057,612.0
14.057271242141724,530.0
14.062822103500366,552.0
14.068850040435791,488.0
14.074702262878418,547.0
14.079177141189575,526.0
14.084350109100342,525.0
14.09262228012085,471.0
14.099855184555054,521.0
14.108144044876099,517.0
14.114881038665771,526.0
14.118973970413208,532.0
14.124804973602295,503.0
14.130317211151123,527.0
14.13485598564148,538.0
14.142086029052734,543.0
14.150289058685303,611.0
14.156826972961426,594.0
14.161953210830688,532.0
14.17012619972229,552.0
14.178319215774536,613.0
14.186954021453857,549.0
14.194353103637695,555.0
14.20278811454773,575.0
14.208000183105469,497.0
14.212351083755493,552.0
14.221248149871826,546.0
14.227177143096924,496.0
14.232431173324585,624.0
14.236971139907837,558.0
14.246305227279663,554.0
14.252194166183472,549.0
14.258169889450073,566.0
14.263322114944458,556.0
14.268160104751587,546.0
14.273576021194458,537.0
14.277857065200806,565.0
14.287301063537598,554.0
14.293026208877563,556.0
14.29849910736084,621.0
14.303670167922974,556.0
14.308812141418457,559.0
14.316045045852661,556.0
14.321542024612427,561.0
14.327207088470459,561.0
14.330960988998413,633.0
14.336651086807251,578.0
14.344423055648804,550.0
14.352262020111084,571.0
14.358211278915405,637.0
14.362951040267944,571.0
14.36796498298645,606.0
14.37306809425354,552.0
14.378244161605835,548.0
14.385839939117432,548.0
14.393915891647339,616.0
14.399618148803711,543.0
14.407424211502075,543.0
14.416376113891602,504.0
14.422581195831299,517.0
14.42905306816101,543.0
14.434593200683594,552.0
14.440238237380981,488.0
14.445442199707031,620.0
14.450798273086548,497.0
14.458236932754517,530.0
14.46632194519043,602.0
14.47451400756836,537.0
14.483021259307861,560.0
14.491014003753662,603.0
14.496686220169067,603.0
14.501737117767334,517.0
14.507229089736938,539.0
14.511857032775879,534.0
14.519151210784912,533.0
14.524602890014648,536.0
14.529377222061157,539.0
14.534332990646362,491.0
14.541012048721313,538.0
14.5488121509552,538.0
14.554570198059082,535.0
14.559178113937378,489.0
14.565989971160889,517.0
14.570849180221558,526.0
14.575675010681152,471.0
14.582643032073975,465.0
14.590770959854126,542.0
14.595920085906982,582.0
14.600730180740356,470.0
14.60748815536499,529.0
14.613672018051147,532.0
14.619850158691406,476.0
14.627547025680542,488.0
14.635332107543945,527.0
14.640968084335327,531.0
14.646321058273315,532.0
14.651235103607178,479.0
14.65823221206665,552.0
14.665735960006714,526.0
14.67123794555664,537.0
14.677196025848389,590.0
14.683375120162964,539.0
14.691791296005249,498.0
14.698434114456177,537.0
14.704068183898926,486.0
14.709238052368164,486.0
14.717326164245605,536.0
14.723636150360107,543.0
14.728785037994385,537.0
14.73599123954773,543.0
14.744019031524658,551.0
14.749572992324829,546.0
14.757817268371582,610.0
14.766602039337158,598.0
14.774742126464844,508.0
14.78089189529419,545.0
14.785319089889526,546.0
14.790741205215454,545.0
14.79549503326416,499.0
14.804652214050293,550.0
14.810481071472168,505.0
14.81574296951294,529.0
14.820515155792236,553.0
14.825593948364258,549.0
14.832922220230103,548.0
14.83908200263977,544.0
14.844131231307983,548.0
14.848920106887817,535.0
14.85398006439209,537.0
14.861685037612915,595.0
14.869895935058594,529.0
14.877549171447754,532.0
14.885960102081299,519.0
14.894320964813232,533.0
14.903337001800537,535.0
14.90795111656189,537.0
14.913177251815796,534.0
14.918134212493896,537.0
14.925624132156372,541.0
14.933563947677612,545.0
14.939471960067749,560.0
14.94414496421814,627.0
14.94939398765564,547.0
14.95491099357605,527.0
14.959609985351562,524.0
14.96648907661438,537.0
14.971846103668213,543.0
14.977421045303345,540.0
14.982776165008545,599.0
14.98772406578064,596.0
14.992653131484985,537.0
14.99842119216919,539.0
15.003631114959717,539.0
15.012164115905762,540.0
15.017821073532104,598.0
15.023668050765991,526.0
15.028505086898804,614.0
15.03604006767273,496.0
15.043934106826782,525.0
15.049818992614746,539.0
15.054394960403442,540.0
15.06001591682434,615.0
15.0660879611969,595.0
15.070558071136475,591.0
15.075605154037476,537.0
15.082741022109985,534.0
15.088026285171509,536.0
15.09309697151184,601.0
15.10027027130127,539.0
15.107925176620483,582.0
15.116022109985352,546.0
15.12416696548462,518.0
15.129343032836914,553.0
15.134812116622925,569.0
15.140184164047241,502.0
15.145344018936157,541.0
15.153861045837402,549.0
15.159815073013306,489.0
15.167140245437622,493.0
15.17488408088684,564.0
15.183086156845093,532.0
15.19133710861206,544.0
15.199735164642334,553.0
15.207863092422485,619.0
15.216063022613525,555.0
15.224716186523438,512.0
15.233612060546875,527.0
15.240124940872192,555.0
15.245625972747803,503.0
15.253923177719116,624.0
15.261666059494019,626.0
15.269204139709473,504.0
15.274083137512207,557.0
15.279374122619629,561.0
15.286931991577148,626.0
15.295282125473022,560.0
15.30262303352356,614.0
15.310968160629272,534.0
15.318974018096924,552.0
15.324642181396484,551.0
15.332716226577759,499.0
15.341147899627686,517.0
15.346558094024658,519.0
15.352175951004028,547.0
15.357972145080566,547.0
15.365521907806396,542.0
15.371206998825073,538.0
15.379786014556885,536.0
15.385485172271729,539.0
15.391023874282837,532.0
15.395503997802734,532.0
15.404397249221802,514.0
15.410039186477661,530.0
15.415303945541382,536.0
15.42016315460205,498.0
15.42836308479309,533.0
15.43671989440918,536.0
15.44514012336731,540.0
15.452810049057007,546.0
15.460556030273438,536.0
15.46601915359497,524.0
15.470976114273071,532.0
15.47533392906189,595.0
15.483015060424805,470.0
15.490878105163574,524.0
15.496899127960205,539.0
15.501484155654907,532.0
15.508886098861694,535.0
15.514755249023438,536.0
15.519787073135376,498.0
15.52757215499878,525.0
15.535130977630615,607.0
15.540796995162964,520.0
15.548924922943115,527.0
15.554922103881836,525.0
15.559566259384155,528.0
15.564250946044922,475.0
15.568580865859985,551.0
15.575385093688965,470.0
15.582129001617432,509.0
15.587057113647461,523.0
15.594938039779663,520.0
15.600152254104614,473.0
15.604958057403564,524.0
15.609761238098145,529.0
15.61594295501709,525.0
15.621464252471924,533.0
15.627152919769287,540.0
15.632894039154053,534.0
15.637506246566772,495.0
15.642425298690796,531.0
15.648120164871216,541.0
15.652804136276245,497.0
15.658935070037842,518.0
15.667172908782959,558.0
15.67365312576294,494.0
15.679250001907349,526.0
15.684033155441284,528.0
15.691033124923706,537.0
15.699295043945312,547.0
15.705397129058838,543.0
15.710116147994995,549.0
15.715795993804932,555.0
15.721405982971191,604.0
15.726837158203125,541.0
15.732063055038452,555.0
15.738240003585815,621.0
15.743508100509644,549.0
15.748834133148193,548.0
15.75380802154541,545.0
15.75838017463684,541.0
15.762993097305298,540.0
15.767747163772583,489.0
15.774749040603638,546.0
15.781063079833984,625.0
15.786059141159058,529.0
15.794172048568726,555.0
15.799422025680542,516.0
15.804118156433105,572.0
15.811050176620483,557.0
15.820021152496338,599.0
15.82886815071106,544.0
15.834971904754639,541.0
15.840719223022461,537.0
15.848993062973022,540.0
15.854494094848633,541.0
15.860541105270386,612.0
15.866401195526123,588.0
15.87093210220337,488.0
15.875931024551392,547.0
15.883503198623657,551.0
15.891501188278198,584.0
15.898191928863525,615.0
15.903536081314087,619.0
15.9117431640625,514.0
15.919273138046265,548.0
15.927287101745605,545.0
15.933007955551147,550.0
15.938982009887695,548.0
15.943925142288208,551.0
15.949300050735474,550.0
15.954347133636475,498.0
15.959254026412964,555.0
15.966539144515991,574.0
15.97452187538147,542.0
15.98080325126648,563.0
15.985796213150024,552.0
15.99115800857544,525.0
15.995498180389404,507.0
16.004024267196655,529.0
16.009324073791504,550.0
16.01287007331848,507.0
16.018041849136353,507.0
16.02360200881958,547.0
16.028547286987305,586.0
16.03711700439453,515.0
16.044928073883057,539.0
16.052345275878906,540.0
16.05802822113037,543.0
16.06580901145935,548.0
16.07141613960266,551.0
16.0765061378479,552.0
16.0816650390625,543.0
16.087120056152344,526.0
16.095402002334595,613.0
16.103567123413086,556.0
16.11094093322754,564.0
16.118723154067993,547.0
16.123799085617065,561.0
16.129444122314453,546.0
16.134289026260376,562.0
16.142086029052734,555.0
16.148049116134644,636.0
16.152838945388794,521.0
16.16085195541382,567.0
16.16891121864319,586.0
16.174622058868408,638.0
16.17932391166687,568.0
16.18522620201111,530.0
16.190234899520874,566.0
16.195203065872192,577.0
16.20342516899109,557.0
16.210604190826416,560.0
16.215999126434326,566.0
16.221622228622437,589.0
16.22661304473877,508.0
16.23242712020874,562.0
16.23808217048645,566.0
16.24306893348694,562.0
16.248555183410645,517.0
16.253255128860474,567.0
16.262498140335083,636.0
16.268331050872803,554.0
16.27412724494934,607.0
16.279351234436035,569.0
16.284738063812256,591.0
16.290076971054077,598.0
16.294456243515015,555.0
16.30354905128479,554.0
16.312423944473267,569.0
16.31797218322754,621.0
16.325343132019043,598.0
16.331692218780518,617.0
16.336059093475342,553.0
16.34502410888672,546.0
16.35350513458252,508.0
16.36080002784729,510.0
16.365915060043335,543.0
16.370341062545776,537.0
16.378395080566406,537.0
16.384104013442993,538.0
16.392168045043945,534.0
16.400846242904663,532.0
16.407752990722656,532.0
16.41287612915039,499.0
16.41771912574768,513.0
16.42298722267151,540.0
16.427217960357666,525.0
16.432586193084717,537.0
16.437530994415283,496.0
16.44585609436035,534.0
16.45416498184204,518.0
16.461815118789673,517.0
16.46929693222046,532.0
16.478718996047974,603.0
16.48729705810547,597.0
16.492062091827393,596.0
16.49972105026245,538.0
16.50781226158142,534.0
16.51663112640381,533.0
16.523040056228638,527.0
16.527871131896973,571.0
16.53585910797119,600.0
16.544182062149048,536.0
16.5521080493927,600.0
16.55712914466858,543.0
16.56291890144348,535.0
16.567686080932617,546.0
16.57319402694702,620.0
16.577279090881348,542.0
16.58251118659973,542.0
16.587517023086548,597.0
16.592802047729492,538.0
16.600553035736084,536.0
16.60904622077942,541.0
16.615360021591187,550.0
16.620774030685425,618.0
16.62908911705017,553.0
16.634011030197144,550.0
16.641577005386353,514.0
16.65007495880127,544.0
16.656535148620605,537.0
16.662042140960693,536.0
16.668139219284058,538.0
16.674067974090576,539.0
16.679447174072266,545.0
16.68407416343689,569.0
16.689664125442505,548.0
16.695093154907227,557.0
16.700326919555664,588.0
16.705692052841187,496.0
16.710724115371704,545.0
16.71582818031311,554.0
16.720853090286255,549.0
16.726151943206787,551.0
16.731840133666992,555.0
16.736506938934326,517.0
16.745136976242065,558.0
16.751225233078003,563.0
16.75851821899414,568.0
16.766737937927246,566.0
16.7745840549469,560.0
16.78209114074707,551.0
16.78783392906189,543.0
16.795714139938354,533.0
16.80426597595215,526.0
16.813502073287964,527.0
16.81840419769287,530.0
16.825868129730225,595.0
16.831935167312622,475.0
16.83716106414795,532.0
16.845636129379272,560.0
16.85108518600464,468.0
16.856900930404663,484.0
16.862590074539185,519.0
16.868010997772217,588.0
16.875067949295044,520.0
16.88349223136902,512.0
16.89154624938965,462.0
16.899695873260498,523.0
16.907488107681274,558.0
16.916011095046997,478.0
16.924601078033447,508.0
16.931028127670288,513.0
16.936945915222168,460.0
16.944924116134644,463.0
16.95237421989441,542.0
16.95796513557434,513.0
16.96348810195923,568.0
16.968592882156372,523.0
16.97320294380188,513.0
16.97843623161316,472.0
16.984293937683105,464.0
16.99178409576416,520.0
16.9996440410614,539.0
17.005181074142456,472.0
17.009968042373657,518.0
17.015321254730225,474.0
17.020179986953735,594.0
17.028350114822388,534.0
17.03590989112854,506.0
17.04519510269165,528.0
17.05262327194214,529.0
17.058237075805664,472.0
17.06670904159546,521.0
17.073002099990845,522.0
17.078896045684814,521.0
17.08393621444702,517.0
17.09153914451599,524.0
17.09814715385437,540.0
17.104096174240112,596.0
17.109204053878784,522.0
17.115623950958252,591.0
17.120747089385986,541.0
17.13021230697632,515.0
17.135898113250732,551.0
17.1441650390625,495.0
17.15270709991455,549.0
17.161869049072266,552.0
17.170785188674927,554.0
17.17964196205139,556.0
17.185060262680054,613.0
17.191188097000122,623.0
17.199477195739746,498.0
17.207863092422485,498.0
17.21705913543701,554.0
17.223393201828003,554.0
17.228904962539673,555.0
17.23785710334778,605.0
17.246272087097168,578.0
17.25217914581299,559.0
17.258527994155884,553.0
17.265604257583618,622.0
17.271085262298584,516.0
17.276244163513184,558.0
17.28166103363037,630.0
17.287105083465576,557.0
17.29586696624756,547.0
17.300533056259155,566.0
17.308676958084106,566.0
17.317436933517456,564.0
17.32421898841858,563.0
17.329774141311646,508.0
17.3354971408844,552.0
17.34195303916931,560.0
17.349946975708008,609.0
17.358373880386353,499.0
17.36697816848755,548.0
17.375936031341553,547.0
17.3825740814209,548.0
17.388163089752197,549.0
17.393977880477905,548.0
17.39991307258606,548.0
17.404845237731934,592.0
17.409584999084473,548.0
17.41722822189331,546.0
17.423991203308105,543.0
17.42982316017151,549.0
17.435620307922363,567.0
17.440923929214478,509.0
17.4461829662323,546.0
17.451555252075195,551.0
17.45693302154541,498.0
17.461600065231323,502.0
17.466684103012085,619.0
17.474000930786133,549.0
17.48002314567566,515.0
17.485187292099,545.0
17.491043090820312,540.0
17.49581217765808,538.0
17.503495931625366,541.0
17.510797262191772,532.0
17.516550064086914,532.0
17.524052143096924,537.0
17.532151222229004,524.0
17.53766894340515,565.0
17.543307065963745,595.0
17.54863214492798,533.0
17.553499937057495,491.0
17.562461137771606,535.0
17.568403959274292,485.0
17.57417607307434,542.0
17.57983708381653,546.0
17.58502721786499,552.0
17.590816020965576,555.0
17.59632110595703,623.0
17.602058172225952,598.0
17.60803198814392,539.0
17.614359140396118,551.0
17.619925022125244,559.0
17.628698110580444,554.0
17.634413242340088,552.0
17.640334129333496,550.0
17.64589810371399,553.0
17.651267290115356,550.0
17.65751814842224,627.0
17.662774085998535,493.0
17.668042182922363,548.0
17.673897981643677,611.0
17.679333925247192,508.0
17.688087224960327,549.0
17.693226099014282,550.0
17.699329137802124,552.0
17.704719305038452,592.0
17.710541248321533,541.0
17.716448068618774,532.0
17.724294900894165,547.0
17.72843289375305,501.0
17.73702907562256,503.0
17.745838165283203,550.0
17.755249977111816,557.0
17.761645078659058,559.0
17.768315076828003,596.0
17.774317264556885,507.0
17.779664039611816,554.0
17.785072088241577,558.0
17.78933620452881,498.0
17.79542303085327,530.0
17.80366015434265,545.0
17.81232500076294,544.0
17.818397045135498,593.0
17.8244149684906,484.0
17.83012628555298,520.0
17.83559823036194,527.0
17.841444969177246,531.0
17.849897146224976,476.0
17.855994939804077,519.0
17.861048221588135,525.0
17.86880898475647,527.0
17.875009059906006,535.0
17.881068229675293,535.0
17.885473012924194,539.0
17.890918970108032,543.0
17.899091005325317,533.0
17.90434217453003,533.0
17.908883094787598,530.0
17.916568279266357,530.0
17.924769163131714,528.0
17.932687997817993,538.0
17.94153094291687,531.0
17.9501371383667,482.0
17.959003925323486,532.0
17.96539616584778,527.0
17.970916986465454,485.0
17.976705074310303,524.0
17.9831440448761,526.0
17.987917184829712,526.0
17.992735147476196,518.0
17.99817204475403,523.0
18.003549098968506,522.0
18.012394189834595,521.0
18.02082109451294,484.0
18.025573015213013,472.0
18.033420085906982,519.0
18.041988134384155,528.0
18.04862904548645,549.0
18.054102182388306,551.0
18.059970140457153,529.0
18.065770149230957,534.0
18.070794105529785,535.0
18.075829029083252,603.0
18.083719968795776,533.0
18.092108249664307,558.0
18.098418951034546,535.0
18.103981256484985,533.0
18.110047101974487,604.0
18.118074893951416,537.0
18.12389302253723,616.0
18.128783226013184,548.0
18.133576154708862,553.0
18.14168930053711,554.0
18.14988112449646,517.0
18.158605098724365,551.0
18.164605140686035,551.0
18.169498920440674,590.0
18.178410053253174,543.0
18.185774087905884,536.0
18.191275119781494,477.0
18.1967511177063,534.0
18.20199418067932,529.0
18.20749020576477,606.0
18.212594032287598,474.0
18.220571041107178,529.0
18.229043006896973,533.0
18.236703157424927,536.0
18.245299100875854,540.0
18.25265121459961,494.0
18.260721921920776,546.0
18.266366004943848,544.0
18.273701906204224,527.0
18.279253005981445,490.0
18.284032106399536,533.0
18.291574001312256,535.0
18.3003671169281,533.0
18.307013034820557,593.0
18.312522172927856,498.0
18.318390130996704,530.0
18.324015855789185,530.0
18.32911205291748,534.0
18.336674213409424,477.0
18.34374213218689,535.0
18.34935212135315,582.0
18.357668161392212,492.0
18.365575075149536,538.0
18.371117115020752,534.0
18.377231121063232,535.0
18.38278102874756,529.0
18.387460947036743,528.0
18.394999027252197,529.0
18.40010094642639,476.0
18.407609224319458,531.0
18.416059970855713,528.0
18.42451310157776,529.0
18.432435035705566,531.0
18.437528133392334,596.0
18.44505500793457,533.0
18.453330993652344,507.0
18.460649013519287,530.0
18.46615719795227,533.0
18.47166395187378,535.0
18.476611137390137,478.0
18.48231315612793,569.0
18.48696517944336,527.0
18.49396514892578,531.0
18.499145984649658,532.0
18.50343418121338,523.0
18.511781930923462,552.0
18.520206212997437,531.0
18.527168035507202,537.0
18.532570123672485,545.0
18.538169145584106,549.0
18.543056964874268,524.0
18.548604011535645,548.0
18.55323815345764,547.0
18.560952186584473,554.0
18.56824827194214,595.0
18.57363510131836,516.0
18.579092025756836,523.0
18.586607217788696,496.0
18.595086097717285,555.0
18.604044198989868,574.0
18.61625909805298,515.0
18.6248881816864,553.0
18.63349413871765,589.0
18.64013695716858,553.0
18.645231246948242,558.0
18.65282702445984,559.0
18.660771131515503,561.0
18.66614317893982,557.0
18.67166805267334,558.0
18.676719188690186,563.0
18.682163953781128,563.0
18.687934160232544,592.0
18.69292402267456,562.0
18.698439121246338,562.0
18.70285701751709,569.0
18.711108207702637,613.0
18.719516038894653,633.0
18.72897696495056,540.0
18.734682321548462,631.0
18.73971700668335,565.0
18.74489402770996,560.0
18.75250220298767,566.0
18.76047420501709,579.0
18.766053915023804,516.0
18.771607160568237,557.0
18.776886224746704,547.0
18.782366037368774,561.0
18.787475109100342,560.0
18.795948028564453,589.0
18.801719188690186,574.0
18.807070016860962,525.0
18.81195616722107,547.0
18.82024621963501,549.0
18.82528328895569,545.0
18.83275294303894,588.0
18.840790033340454,545.0
18.84950304031372,545.0
18.855026960372925,549.0
18.861146211624146,568.0
18.869230270385742,493.0
18.87732720375061,611.0
18.883403062820435,536.0
18.891674280166626,497.0
18.90020990371704,542.0
18.90673327445984,497.0
18.91211199760437,483.0
18.92045307159424,535.0
18.92839002609253,540.0
18.934101104736328,541.0
18.941729068756104,542.0
18.950399160385132,535.0
18.95680594444275,593.0
18.96233820915222,498.0
18.96835207939148,540.0
18.974077939987183,551.0
18.97930908203125,549.0
18.984620094299316,562.0
18.99042797088623,515.0
18.994835138320923,544.0
19.004382133483887,549.0
19.010170936584473,607.0
19.015669107437134,485.0
19.02129316329956,601.0
19.026417016983032,593.0
19.03281593322754,503.0
19.038716077804565,531.0
19.04502296447754,536.0
19.054214000701904,507.0
19.059340238571167,549.0
19.06766104698181,550.0
19.074116945266724,625.0
19.083160161972046,604.0
19.089672088623047,499.0
19.094943046569824,548.0
19.10347604751587,551.0
19.111855268478394,503.0
19.12082529067993,553.0
19.126655101776123,557.0
19.132167100906372,575.0
19.138237953186035,551.0
19.143692016601562,548.0
19.14997625350952,541.0
19.158193111419678,550.0
19.16676616668701,550.0
19.175692081451416,613.0
19.182133197784424,545.0
19.18831706047058,549.0
19.193542003631592,552.0
19.19882607460022,548.0
19.20437216758728,495.0
19.209946870803833,548.0
19.216104984283447,549.0
19.224586009979248,557.0
19.233363151550293,627.0
19.239686012268066,619.0
19.244962215423584,500.0
19.253464221954346,503.0
19.261124849319458,518.0
19.27002191543579,509.0
19.278995990753174,546.0
19.287451028823853,594.0
19.2964129447937,558.0
19.301531076431274,556.0
19.307361125946045,629.0
19.31311321258545,550.0
19.31903386116028,551.0
19.32582402229309,620.0
19.33405303955078,491.0
19.34062910079956,541.0
19.34555697441101,487.0
19.354116201400757,515.0
19.35997700691223,519.0
19.36568808555603,507.0
19.371092081069946,551.0
19.375734090805054,518.0
19.38158392906189,498.0
19.386012077331543,483.0
19.3944251537323,511.0
19.400174140930176,514.0
19.40826106071472,515.0
19.416635036468506,516.0
19.425318956375122,515.0
19.431745052337646,556.0
19.437259197235107,515.0
19.446455240249634,511.0
19.45136594772339,517.0
19.4561710357666,463.0
19.460907220840454,458.0
19.46883201599121,521.0
19.474521160125732,508.0
19.4792320728302,517.0
19.48498797416687,535.0
19.490341901779175,476.0
19.496256113052368,512.0
19.501330137252808,512.0
19.50695300102234,509.0
19.51175308227539,500.0
19.52052903175354,573.0
19.526453018188477,452.0
19.53204107284546,488.0
19.537203073501587,487.0
19.54546809196472,489.0
19.550748109817505,477.0
19.55893611907959,447.0
19.565641164779663,580.0
19.571126222610474,520.0
19.577160120010376,517.0
19.583451986312866,488.0
19.59129309654236,514.0
19.597376108169556,545.0
19.602171897888184,517.0
19.607975006103516,514.0
19.61329221725464,517.0
19.617876052856445,523.0
19.623361110687256,564.0
19.628648042678833,528.0
19.63421607017517,545.0
19.639389038085938,539.0
19.643705129623413,535.0
19.64887809753418,533.0
19.653491973876953,536.0
19.65811324119568,517.0
19.662784099578857,477.0
19.667641162872314,519.0
19.67517399787903,592.0
19.683508157730103,507.0
19.692110300064087,526.0
19.698430061340332,530.0
19.703593969345093,535.0
19.712420225143433,536.0
19.717586040496826,529.0
19.72355628013611,538.0
19.728779077529907,532.0
19.737675189971924,531.0
19.74303698539734,495.0
19.75067710876465,535.0
19.75927710533142,535.0
19.766234159469604,490.0
19.77464723587036,537.0
19.783234119415283,537.0
19.791190147399902,534.0
19.797324180603027,535.0
19.802427053451538,533.0
19.807708024978638,535.0
19.816272020339966,535.0
19.824631214141846,600.0
19.832885026931763,531.0
19.841140031814575,516.0
19.846553087234497,599.0
19.851535320281982,534.0
19.856757164001465,511.0
19.862539052963257,594.0
19.870973110198975,533.0
19.876737117767334,533.0
19.8824462890625,536.0
19.887432098388672,519.0
19.892434120178223,534.0
19.899548053741455,534.0
19.907891988754272,530.0
19.915618181228638,477.0
19.92135000228882,598.0
19.92616295814514,529.0
19.93143105506897,536.0
19.937193155288696,487.0
19.945295095443726,535.0
19.95271396636963,528.0
19.960516214370728,535.0
19.96780514717102,540.0
19.973490953445435,545.0
19.978318214416504,491.0
19.986719131469727,585.0
19.995024919509888,541.0
20.00365710258484,495.0
20.012407064437866,538.0
20.01743221282959,537.0
20.023317098617554,531.0
20.02851104736328,493.0
20.037096977233887,530.0
20.043154001235962,546.0
20.048326015472412,565.0
20.053595066070557,547.0
20.06101417541504,542.0
20.070065021514893,544.0
20.077803134918213,504.0
20.08591103553772,543.0
20.094110012054443,532.0
20.099887132644653,529.0
20.107343912124634,545.0
20.112824201583862,512.0
20.118893146514893,547.0
20.12502098083496,547.0
20.132569074630737,548.0
20.138155221939087,547.0
20.143880128860474,550.0
20.149388074874878,496.0
20.15460991859436,559.0
20.15985417366028,557.0
20.165661096572876,626.0
20.170959949493408,519.0
20.17697310447693,554.0
20.1825270652771,556.0
20.190852880477905,556.0
20.20000696182251,604.0
20.206233263015747,497.0
20.212136030197144,541.0
20.220600128173828,558.0
20.22679305076599,556.0
20.232805013656616,565.0
20.238714933395386,567.0
20.243428230285645,572.0
20.248871088027954,574.0
20.2538001537323,648.0
20.261927127838135,615.0
20.27078604698181,576.0
20.279267072677612,625.0
20.28492498397827,564.0
20.290122032165527,561.0
20.29533290863037,556.0
20.302597045898438,607.0
20.309760093688965,502.0
20.315162181854248,489.0
20.320611238479614,535.0
20.325645208358765,536.0
20.33338499069214,539.0
20.339389085769653,535.0
20.343619108200073,512.0
20.34908390045166,607.0
20.354297161102295,535.0
20.359430074691772,491.0
20.366688013076782,520.0
20.37301516532898,493.0
20.37848401069641,478.0
20.385975122451782,526.0
20.39387011528015,535.0
20.39960503578186,532.0
20.40497899055481,538.0
20.410020112991333,536.0
20.41577911376953,481.0
20.42104721069336,595.0
20.425831079483032,492.0
20.433758020401,527.0
20.439801931381226,535.0
20.445207118988037,532.0
20.453222036361694,531.0
20.46172595024109,536.0
20.469451189041138,604.0
20.477174043655396,513.0
20.482837200164795,535.0
20.490642070770264,613.0
20.49651002883911,539.0
20.501132249832153,530.0
20.50846219062805,535.0
20.517114877700806,531.0
20.52326512336731,512.0
20.528398275375366,531.0
20.53599214553833,519.0
20.543968200683594,597.0
20.549437046051025,538.0
20.554620027542114,537.0
20.560084104537964,602.0
20.565979957580566,541.0
20.57132124900818,529.0
20.57719111442566,545.0
20.582210063934326,538.0
20.586769104003906,598.0
20.592884063720703,610.0
20.598284244537354,554.0
20.602381229400635,626.0
20.607343196868896,514.0
20.612158060073853,546.0
20.61692214012146,544.0
20.624100923538208,550.0
20.629523992538452,543.0
20.638073921203613,544.0
20.64384913444519,494.0
20.64960503578186,494.0
20.65516185760498,495.0
20.659687995910645,547.0
20.667043209075928,552.0
20.672985076904297,556.0
20.678561210632324,555.0
20.687196016311646,626.0
20.69615602493286,505.0
20.70218300819397,540.0
20.708220958709717,561.0
20.714107036590576,609.0
20.71853017807007,557.0
20.724146127700806,549.0
20.72874617576599,497.0
20.73799991607666,553.0
20.744505167007446,561.0
20.754218101501465,520.0
20.762761116027832,550.0
20.767640113830566,558.0
20.775388956069946,525.0
20.78173017501831,512.0
20.7872531414032,544.0
20.796040058135986,543.0
20.80482530593872,537.0
20.80980610847473,538.0
20.81558609008789,540.0
20.82139301300049,605.0
20.82726812362671,582.0
20.833259105682373,511.0
20.84137511253357,498.0
20.849431037902832,503.0
20.857805252075195,532.0
20.86648201942444,533.0
20.874407052993774,528.0
20.88245415687561,476.0
20.887898206710815,586.0
20.89389705657959,537.0
20.899964094161987,534.0
20.90562891960144,605.0
20.91087508201599,536.0
20.918776273727417,531.0
20.92483615875244,556.0
20.933146953582764,488.0
20.942450046539307,551.0
20.949328899383545,534.0
20.95454692840576,528.0
20.959993839263916,534.0
20.966196060180664,529.0
20.971496105194092,529.0
20.976757049560547,531.0
20.984580278396606,534.0
20.991097927093506,534.0
20.995770931243896,539.0
21.00137495994568,603.0
21.007220029830933,508.0
21.013375997543335,546.0
21.018468141555786,603.0
21.02402424812317,505.0
21.028483152389526,536.0
21.036898136138916,542.0
21.045679092407227,553.0
21.05397891998291,547.0
21.059988021850586,547.0
21.065690279006958,550.0
21.070733070373535,606.0
21.075810194015503,597.0
21.083312034606934,533.0
21.091660022735596,539.0
21.099619150161743,524.0
21.108111143112183,547.0
21.116527318954468,559.0
21.124989986419678,544.0
21.13149404525757,543.0
21.137134075164795,544.0
21.145231246948242,587.0
21.152539014816284,497.0
21.16065526008606,548.0
21.166553258895874,558.0
21.17419409751892,559.0
21.18224596977234,620.0
21.190840244293213,555.0
21.196494102478027,493.0
21.201707124710083,499.0
21.207226037979126,543.0
21.212801218032837,610.0
21.218825101852417,611.0
21.223918199539185,499.0
21.228695154190063,536.0
21.23759412765503,622.0
21.245800018310547,555.0
21.254146099090576,522.0
21.258925199508667,555.0
21.266918897628784,557.0
21.273611068725586,533.0
21.279367923736572,551.0
21.284489154815674,552.0
21.290132999420166,554.0
21.295204162597656,555.0
21.302659273147583,618.0
21.311114072799683,488.0
21.320428133010864,536.0
21.328934907913208,540.0
21.33812403678894,538.0
21.343945026397705,600.0
21.349217176437378,503.0
21.354876041412354,525.0
21.360069036483765,527.0
21.36549401283264,523.0
21.370261192321777,528.0
21.37897300720215,543.0
21.387421131134033,555.0
21.393199920654297,473.0
21.398933172225952,550.0
21.404443979263306,514.0
21.410515069961548,504.0
21.41594409942627,526.0
21.421551942825317,522.0
21.426655054092407,523.0
21.432448148727417,522.0
21.43787717819214,559.0
21.443745136260986,592.0
21.449519157409668,570.0
21.457741260528564,522.0
21.466308116912842,520.0
21.474754095077515,521.0
21.48298716545105,462.0
21.48959493637085,515.0
21.49524211883545,515.0
21.503658056259155,520.0
21.512059926986694,565.0
21.5203640460968,516.0
21.528725147247314,534.0
21.53761100769043,560.0
21.546223878860474,489.0
21.55149006843567,516.0
21.55724811553955,526.0
21.562600135803223,527.0
21.567906141281128,523.0
21.573596000671387,502.0
21.579269886016846,601.0
21.588335275650024,501.0
21.59439706802368,540.0
21.599919319152832,547.0
21.608314037322998,561.0
21.614470958709717,547.0
21.62048316001892,554.0
21.628984212875366,606.0
21.637449979782104,534.0
21.646724224090576,546.0
21.653686046600342,550.0
21.661898136138916,548.0
21.67015814781189,572.0
21.67878007888794,507.0
21.687323093414307,541.0
21.69330596923828,544.0
21.698524951934814,481.0
21.703557014465332,511.0
21.712736129760742,538.0
21.718817234039307,590.0
21.724398136138916,560.0
21.732781171798706,528.0
21.741009950637817,518.0
21.746735095977783,541.0
21.75150489807129,549.0
21.757018327713013,561.0
21.761881113052368,615.0
21.766932010650635,564.0
21.774315118789673,512.0
21.782925128936768,535.0
21.790653944015503,555.0
21.79610824584961,558.0
21.8021719455719,558.0
21.808188915252686,558.0
21.81633710861206,624.0
21.825052976608276,494.0
21.83384108543396,561.0
21.84069514274597,609.0
21.84612512588501,495.0
21.85119318962097,547.0
21.857128143310547,550.0
21.862720012664795,545.0
21.86850619316101,541.0
21.875702142715454,536.0
21.883886098861694,538.0
21.89255404472351,588.0
21.899317026138306,529.0
21.90804409980774,527.0
21.9165780544281,532.0
21.92303705215454,532.0
21.92880916595459,521.0
21.938215970993042,522.0
21.943961143493652,525.0
21.95041799545288,564.0
21.958724975585938,473.0
21.96530318260193,531.0
21.970116138458252,584.0
21.978283166885376,474.0
21.98386311531067,474.0
21.991794109344482,530.0
21.997777938842773,529.0
22.00255012512207,533.0
22.007889986038208,536.0
22.015743017196655,549.0
22.021549224853516,530.0
22.026650190353394,544.0
22.03202795982361,513.0
22.037012100219727,507.0
22.045796155929565,521.0
22.054081201553345,473.0
22.06188702583313,482.0
22.0702121257782,592.0
22.074887990951538,524.0
22.079258918762207,591.0
22.087631940841675,533.0
22.093343019485474,516.0
22.098884105682373,599.0
22.10348606109619,487.0
22.11174988746643,522.0
22.119065284729004,539.0
22.124746084213257,541.0
22.130154132843018,609.0
22.13508892059326,517.0
22.140701055526733,542.0
22.14560604095459,539.0
22.15053129196167,534.0
22.156336069107056,521.0
22.162163019180298,532.0
22.166697025299072,540.0
22.17101502418518,538.0
22.17533016204834,483.0
22.182063102722168,512.0
22.18705105781555,589.0
22.191919088363647,477.0
22.19889807701111,527.0
22.20459508895874,527.0
22.210567951202393,466.0
22.21692705154419,520.0
22.22441291809082,523.0
22.227720022201538,527.0
22.236106157302856,533.0
22.24402904510498,603.0
22.249709129333496,478.0
22.257703065872192,535.0
22.263235092163086,540.0
22.268782138824463,545.0
22.27426528930664,590.0
22.278586864471436,488.0
22.286025047302246,535.0
22.2919921875,537.0
22.30011510848999,529.0
22.308597087860107,529.0
22.317336082458496,601.0
22.323428869247437,466.0
22.328357934951782,523.0
22.337239027023315,587.0
22.34565305709839,469.0
22.35163116455078,508.0
22.356739282608032,506.0
22.361892223358154,510.0
22.366839170455933,512.0
22.37124800682068,563.0
22.377039194107056,585.0
22.383732080459595,512.0
22.391613960266113,476.0
22.400017976760864,513.0
22.40792417526245,503.0
22.413401126861572,500.0
22.419371128082275,507.0
22.427721977233887,565.0
22.435691118240356,444.0
22.44120502471924,490.0
22.448949098587036,491.0
22.455002307891846,496.0
22.459692239761353,484.0
22.467042207717896,568.0
22.47443199157715,489.0
22.480029106140137,515.0
22.48446011543274,496.0
22.491964101791382,497.0
22.499534130096436,500.0
22.507923126220703,559.0
22.513083934783936,499.0
22.5175461769104,499.0
22.52531409263611,507.0
22.53202795982361,503.0
22.53722620010376,496.0
22.545028924942017,516.0
22.552326917648315,521.0
22.557977199554443,602.0
22.56549096107483,481.0
22.571067094802856,535.0
22.57629919052124,525.0
22.581526041030884,534.0
22.586169242858887,537.0
22.594102144241333,604.0
22.600313186645508,529.0
22.606166124343872,529.0
22.6109881401062,525.0
22.61678695678711,519.0
22.625365018844604,583.0
22.63191509246826,518.0
22.637153148651123,490.0
22.64202094078064,470.0
22.649155139923096,477.0
22.655022144317627,520.0
22.66031813621521,523.0
22.66421413421631,532.0
22.669217109680176,535.0
22.676897048950195,599.0
22.68231511116028,500.0
22.687880039215088,496.0
22.692841053009033,494.0
22.69827628135681,535.0
22.703449249267578,536.0
22.710705041885376,495.0
22.716021060943604,536.0
22.72042202949524,538.0
22.72524404525757,538.0
22.73035192489624,544.0
22.734957218170166,525.0
22.740151166915894,536.0
22.74440908432007,540.0
22.751485109329224,540.0
22.75652503967285,599.0
22.760452270507812,484.0
22.76565718650818,518.0
22.77012014389038,521.0
22.77774405479431,527.0
22.78682518005371,519.0
22.793904066085815,520.0
22.799356937408447,550.0
22.804861068725586,491.0
22.809757947921753,518.0
22.815020084381104,523.0
22.819996118545532,588.0
22.82736897468567,458.0
22.832859992980957,509.0
22.838088989257812,560.0
22.84328007698059,583.0
22.84919309616089,512.0
22.854591131210327,507.0
22.860522031784058,516.0
22.86549711227417,503.0
22.87042999267578,503.0
22.877547025680542,534.0
22.885284900665283,446.0
22.89067816734314,501.0
22.896217107772827,503.0
22.901549100875854,500.0
22.9069561958313,501.0
22.912039041519165,491.0
22.919403076171875,497.0
22.927659034729004,526.0
22.935169219970703,498.0
22.94006109237671,499.0
22.943950176239014,511.0
22.948758125305176,514.0
22.953278064727783,497.0
22.96118402481079,506.0
22.969073057174683,508.0
22.97453022003174,486.0
22.980013132095337,503.0
22.984858989715576,503.0
22.990297079086304,456.0
22.99551486968994,497.0
23.004068851470947,512.0
23.01252317428589,575.0
23.018423080444336,503.0
23.0239520072937,583.0
23.029320001602173,508.0
23.03466820716858,516.0
23.04002809524536,522.0
23.045239210128784,578.0
23.05276918411255,510.0
23.060827016830444,524.0
23.06600308418274,578.0
23.070316076278687,537.0
23.077142000198364,531.0
23.082809925079346,530.0
23.088256120681763,476.0
23.093780994415283,522.0
23.09868597984314,533.0
23.103809118270874,538.0
23.11094617843628,486.0
23.119961261749268,516.0
23.12736415863037,536.0
23.132404088974,540.0
23.13696312904358,541.0
23.145255088806152,548.0
23.15319514274597,619.0
23.160521030426025,510.0
23.166158199310303,535.0
23.171276092529297,479.0
23.176185846328735,537.0
23.181912183761597,542.0
23.18663716316223,556.0
23.19402503967285,583.0
23.199347019195557,578.0
23.204394102096558,557.0
23.209285020828247,530.0
23.2167010307312,551.0
23.223040103912354,573.0
23.228166103363037,502.0
23.235930919647217,542.0
23.243835926055908,537.0
23.24927806854248,569.0
23.25483512878418,535.0
23.25981116294861,598.0
23.265613079071045,476.0
23.270475149154663,529.0
23.27872109413147,479.0
23.284194231033325,527.0
23.292025089263916,528.0
23.298779010772705,534.0
23.30467414855957,565.0
23.310476064682007,599.0
23.31684899330139,580.0
23.32476019859314,531.0
23.33059000968933,529.0
23.335491180419922,525.0
23.341426134109497,523.0
23.34582209587097,580.0
23.351065158843994,470.0
23.35593295097351,516.0
23.360862016677856,502.0
23.36852216720581,521.0
23.374644994735718,516.0
23.379549980163574,505.0
23.384183168411255,589.0
23.389719247817993,522.0
23.394469022750854,512.0
23.400856256484985,573.0
23.40910315513611,462.0
23.415940284729004,515.0
23.423218965530396,584.0
23.430705070495605,463.0
23.440838098526,508.0
23.448312282562256,515.0
23.454097986221313,514.0
23.459641933441162,527.0
23.465296030044556,512.0
23.47105121612549,506.0
23.476498126983643,512.0
23.484852075576782,516.0
23.491480112075806,465.0
23.500271320343018,578.0
23.506399154663086,548.0
23.512187004089355,592.0
23.5208683013916,463.0
23.529332160949707,520.0
23.535610914230347,526.0
23.541372060775757,531.0
23.549663066864014,545.0
23.557692050933838,532.0
23.562969207763672,535.0
23.568106174468994,562.0
23.573609113693237,478.0
23.579368114471436,589.0
23.584548950195312,476.0
23.59163188934326,521.0
23.597764253616333,531.0
23.602768898010254,479.0
23.60817527770996,517.0
23.612621068954468,525.0
23.620265007019043,530.0
23.62577509880066,533.0
23.631484985351562,527.0
23.636630058288574,602.0
23.644134044647217,481.0
23.649735927581787,532.0
23.654907941818237,488.0
23.659268140792847,535.0
23.666531085968018,536.0
23.674654960632324,536.0
23.680925130844116,605.0
23.686044931411743,518.0
23.69519329071045,527.0
23.703449249267578,532.0
23.710833072662354,533.0
23.71943211555481,469.0
23.728268146514893,525.0
23.73716902732849,594.0
23.746116876602173,519.0
23.75156307220459,510.0
23.75804114341736,524.0
23.763052225112915,519.0
23.76811194419861,521.0
23.77398109436035,530.0
23.77896213531494,561.0
23.784746170043945,523.0
23.78995108604431,525.0
23.795548915863037,527.0
23.800706148147583,518.0
23.808156967163086,542.0
23.816678047180176,560.0
23.82506823539734,494.0
23.83356022834778,524.0
23.841574907302856,522.0
23.848300218582153,522.0
23.852843046188354,573.0
23.861871242523193,492.0
23.86783003807068,510.0
23.873008012771606,516.0
23.877674102783203,514.0
23.883396863937378,521.0
23.888551950454712,538.0
23.893553972244263,536.0
23.898334980010986,527.0
23.903672218322754,593.0
23.90886616706848,465.0
23.916930198669434,494.0
23.922616243362427,514.0
23.92726993560791,503.0
23.933215141296387,496.0
23.93824601173401,514.0
23.94320321083069,515.0
23.948567152023315,516.0
23.95408010482788,522.0
23.95906686782837,522.0
23.96624207496643,522.0
23.974663019180298,519.0
23.98298406600952,525.0
23.991218090057373,522.0
23.999751091003418,518.0
24.00754427909851,524.0
24.01602530479431,532.0
24.023133993148804,524.0
24.02918004989624,524.0
24.034646034240723,528.0
24.039692163467407,593.0
24.044908046722412,476.0
24.052526235580444,584.0
24.0606369972229,516.0
24.06639313697815,516.0
24.07105588912964,528.0
24.076648950576782,552.0
24.08206605911255,570.0
24.087223052978516,494.0
24.091978073120117,534.0
24.0994930267334,530.0
24.107272148132324,537.0
24.113485097885132,538.0
24.118757963180542,540.0
24.124267101287842,601.0
24.129674196243286,478.0
24.13473415374756,496.0
24.14025092124939,534.0
24.145344018936157,539.0
24.151023864746094,548.0
24.15641498565674,539.0
24.161041021347046,541.0
24.17007327079773,609.0
24.178956031799316,485.0
24.187467098236084,542.0
24.195844173431396,543.0
24.204089879989624,600.0
24.210063219070435,511.0
24.21605610847473,529.0
24.22116994857788,562.0
24.226651906967163,475.0
24.23279905319214,516.0
24.237548112869263,520.0
24.242362022399902,519.0
24.249428033828735,521.0
24.2573881149292,525.0
24.262893199920654,504.0
24.26757502555847,501.0
24.274657011032104,532.0
24.280550003051758,558.0
24.28507399559021,486.0
24.290744066238403,509.0
24.29622721672058,516.0
24.301753997802734,487.0
24.306965112686157,510.0
24.311883211135864,511.0
24.320178985595703,518.0
24.326264142990112,454.0
24.333486080169678,512.0
24.339109897613525,582.0
24.343714237213135,484.0
24.349332094192505,504.0
24.35387921333313,533.0
24.359116077423096,506.0
24.36407709121704,502.0
24.36904001235962,511.0
24.37454104423523,508.0
24.380048036575317,512.0
24.384604930877686,568.0
24.391950130462646,471.0
24.40002417564392,504.0
24.408442974090576,506.0
24.41493010520935,505.0
24.419982194900513,507.0
24.42915630340576,573.0
24.434959888458252,493.0
24.44088912010193,531.0
24.446433067321777,520.0
24.45187520980835,524.0
