time,emg
0.015136003494262695,364.0
0.03187203407287598,362.0
0.04415297508239746,371.0
0.054183006286621094,367.0
0.06151294708251953,367.0
0.0674278736114502,380.0
0.07510876655578613,377.0
0.08594894409179688,371.0
0.09568476676940918,382.0
0.10519599914550781,380.0
0.11600303649902344,380.0
0.12596511840820312,385.0
0.13593697547912598,387.0
0.1456928253173828,393.0
0.15515494346618652,383.0
0.16594290733337402,370.0
0.17586684226989746,368.0
0.18594002723693848,374.0
0.19571495056152344,379.0
0.20520401000976562,349.0
0.21596384048461914,374.0
0.22585606575012207,373.0
0.23593497276306152,375.0
0.24538397789001465,377.0
0.2547950744628906,381.0
0.26551079750061035,380.0
0.27538299560546875,378.0
0.28545212745666504,382.0
0.2956259250640869,381.0
0.3051440715789795,386.0
0.31598377227783203,383.0
0.3258979320526123,374.0
0.33596277236938477,359.0
0.3457179069519043,379.0
0.3552389144897461,375.0
0.3652489185333252,378.0
0.375823974609375,376.0
0.38521814346313477,373.0
0.3955109119415283,377.0
0.4049079418182373,388.0
0.4150679111480713,388.0
0.42480993270874023,388.0
0.43593382835388184,381.0
0.4455718994140625,380.0
0.45563387870788574,377.0
0.4661118984222412,380.0
0.4756889343261719,371.0
0.48488879203796387,356.0
0.4952890872955322,372.0
0.5050740242004395,371.0
0.5155730247497559,371.0
0.5255529880523682,370.0
0.5354330539703369,367.0
0.545360803604126,371.0
0.5547688007354736,369.0
0.5651960372924805,371.0
0.5761868953704834,381.0
0.5865421295166016,385.0
0.5961987972259521,383.0
0.6057388782501221,381.0
0.6155409812927246,381.0
0.6254458427429199,377.0
0.6354289054870605,390.0
0.6453907489776611,391.0
0.6548380851745605,371.0
0.665539026260376,375.0
0.675513744354248,375.0
0.685452938079834,375.0
0.6956989765167236,372.0
0.7051639556884766,372.0
0.7159368991851807,367.0
0.7259399890899658,366.0
0.7359340190887451,370.0
0.745722770690918,374.0
0.7552289962768555,371.0
0.7660191059112549,373.0
0.7760100364685059,373.0
0.7859368324279785,369.0
0.7957010269165039,340.0
0.8051741123199463,379.0
0.8158359527587891,372.0
0.8258109092712402,370.0
0.8359317779541016,366.0
0.8457050323486328,362.0
0.8551719188690186,367.0
0.8659219741821289,366.0
0.8758840560913086,371.0
0.8859348297119141,365.0
0.8956959247589111,364.0
0.9051730632781982,378.0
0.915956974029541,370.0
0.9259121417999268,372.0
0.9359369277954102,366.0
0.9456861019134521,372.0
0.9551501274108887,375.0
0.9659059047698975,381.0
0.9758610725402832,388.0
0.9859359264373779,379.0
0.9957239627838135,370.0
1.005232810974121,367.0
1.015990972518921,364.0
1.0259559154510498,367.0
1.0359349250793457,368.0
1.045360803604126,374.0
1.054805040359497,372.0
1.065497875213623,368.0
1.0754060745239258,372.0
1.0854589939117432,369.0
1.095499038696289,367.0
1.1049549579620361,373.0
1.115725040435791,371.0
1.125199794769287,372.0
1.1359338760375977,373.0
1.1456069946289062,381.0
1.1550767421722412,367.0
1.165456771850586,366.0
1.1753318309783936,361.0
1.185441017150879,357.0
1.195408821105957,359.0
1.204859972000122,364.0
1.215796947479248,363.0
1.2257840633392334,363.0
1.2359271049499512,363.0
1.2456579208374023,339.0
1.2551229000091553,367.0
1.2658729553222656,367.0
1.2757680416107178,369.0
1.2859249114990234,369.0
1.295630931854248,374.0
1.3050918579101562,386.0
1.315843105316162,356.0
1.3257458209991455,353.0
1.3359348773956299,371.0
1.3456377983093262,372.0
1.3551299571990967,370.0
1.3658668994903564,362.0
1.3758289813995361,368.0
1.385923147201538,364.0
1.3955950736999512,366.0
1.4050328731536865,372.0
1.4157509803771973,368.0
1.425642967224121,364.0
1.4359228610992432,369.0
1.4453849792480469,368.0
1.4548370838165283,361.0
1.4655427932739258,361.0
1.4754869937896729,376.0
1.4854209423065186,362.0
1.4948029518127441,361.0
1.505324125289917,358.0
1.5150079727172852,363.0
1.5260090827941895,354.0
1.5359218120574951,348.0
1.5456628799438477,361.0
1.5551159381866455,364.0
1.5658559799194336,370.0
1.5757761001586914,372.0
1.5859220027923584,353.0
1.5956649780273438,374.0
1.6051180362701416,377.0
1.6157848834991455,372.0
1.6257069110870361,379.0
1.635922908782959,381.0
1.6456997394561768,387.0
1.6551580429077148,376.0
1.6659269332885742,356.0
1.6758668422698975,366.0
1.685931921005249,345.0
1.6956348419189453,368.0
1.7050938606262207,363.0
1.7158808708190918,362.0
1.725754976272583,349.0
1.7359187602996826,339.0
1.7456598281860352,368.0
1.7551379203796387,364.0
1.765881061553955,359.0
1.775784969329834,346.0
1.7859210968017578,346.0
1.7956480979919434,360.0
1.8051109313964844,371.0
1.8158578872680664,362.0
1.8256378173828125,354.0
1.8359270095825195,360.0
1.8453819751739502,357.0
1.8548460006713867,356.0
1.8655669689178467,355.0
1.875492811203003,353.0
1.8854210376739502,347.0
1.895353078842163,347.0
1.9047949314117432,364.0
1.915482759475708,356.0
1.9251940250396729,364.0
1.9359149932861328,339.0
1.9455859661102295,351.0
1.9550199508666992,340.0
1.965759038925171,365.0
1.9756858348846436,365.0
1.9859158992767334,363.0
1.9956269264221191,361.0
2.0051109790802,353.0
2.0156197547912598,353.0
2.0255517959594727,352.0
2.035444974899292,353.0
2.045402765274048,350.0
2.0548489093780518,349.0
2.0655429363250732,350.0
2.075479030609131,358.0
2.085444927215576,356.0
2.0955231189727783,358.0
2.1049790382385254,356.0
2.115729808807373,355.0
2.1256461143493652,358.0
2.1359188556671143,365.0
2.1456379890441895,369.0
2.1550910472869873,352.0
2.1658170223236084,347.0
2.1756837368011475,347.0
2.1854209899902344,354.0
2.195467948913574,345.0
2.2049720287323,356.0
2.215857982635498,350.0
2.2257840633392334,345.0
2.2359259128570557,357.0
2.245412826538086,358.0
2.254848003387451,360.0
2.2655608654022217,355.0
2.275545835494995,355.0
2.285937786102295,352.0
2.2956249713897705,359.0
2.305156946182251,375.0
2.3159899711608887,357.0
2.3259410858154297,354.0
2.3359169960021973,330.0
2.345705986022949,349.0
2.3551747798919678,350.0
2.365952968597412,352.0
2.3759617805480957,352.0
2.385906934738159,326.0
2.3956940174102783,346.0
2.4051520824432373,355.0
2.415634870529175,355.0
2.4255900382995605,357.0
2.4359171390533447,359.0
2.4456770420074463,368.0
2.455143928527832,350.0
2.4659130573272705,338.0
2.4758388996124268,374.0
2.4859180450439453,334.0
2.4956560134887695,352.0
2.5051159858703613,323.0
2.5158939361572266,323.0
2.525455951690674,350.0
2.5354161262512207,348.0
2.5454859733581543,350.0
2.5549581050872803,355.0
2.5657007694244385,356.0
2.575670003890991,358.0
2.585913896560669,354.0
2.5956919193267822,359.0
2.6051809787750244,361.0
2.6159470081329346,336.0
2.625894784927368,360.0
2.6359119415283203,343.0
2.645375967025757,369.0
2.6548240184783936,360.0
2.6655149459838867,332.0
2.6754648685455322,349.0
2.685433864593506,347.0
2.6954829692840576,323.0
2.7049667835235596,349.0
2.7157039642333984,348.0
2.7251698970794678,342.0
2.7359118461608887,345.0
2.7456939220428467,348.0
2.755156993865967,348.0
2.7659449577331543,330.0
2.7759149074554443,352.0
2.7859079837799072,349.0
2.795677900314331,343.0
2.8051798343658447,350.0
2.8158650398254395,352.0
2.8256540298461914,352.0
2.8359038829803467,341.0
2.845667839050293,344.0
2.8551371097564697,343.0
2.8658759593963623,324.0
2.875802755355835,351.0
2.885906934738159,354.0
2.8955600261688232,331.0
2.905017137527466,336.0
2.9157707691192627,362.0
2.925624132156372,365.0
2.935908794403076,363.0
2.945586919784546,341.0
2.9550368785858154,365.0
2.965759038925171,367.0
2.9756460189819336,366.0
2.9858999252319336,334.0
2.9955878257751465,359.0
3.0050418376922607,355.0
3.0157949924468994,349.0
3.0257318019866943,343.0
3.035902976989746,346.0
3.0453598499298096,347.0
3.05480694770813,343.0
3.0655438899993896,326.0
3.0752220153808594,352.0
3.0854110717773438,354.0
3.095388889312744,348.0
3.1048619747161865,351.0
3.115575075149536,356.0
3.1251819133758545,345.0
3.1358959674835205,348.0
3.145571708679199,355.0
3.1550049781799316,345.0
3.165739059448242,335.0
3.17563796043396,340.0
3.185915946960449,332.0
3.195626974105835,312.0
3.205082893371582,346.0
3.215691089630127,338.0
3.225576877593994,336.0
3.235896110534668,343.0
3.2456510066986084,342.0
3.255168914794922,346.0
3.26595401763916,348.0
3.2758519649505615,352.0
3.2859127521514893,348.0
3.295599937438965,346.0
3.305070161819458,357.0
3.3158321380615234,352.0
3.3257269859313965,348.0
3.335913896560669,318.0
3.3456571102142334,342.0
3.3552141189575195,337.0
3.3660309314727783,346.0
3.37591290473938,346.0
3.385913133621216,329.0
3.3956410884857178,329.0
3.405118942260742,340.0
3.415745973587036,349.0
3.425676107406616,351.0
3.435898780822754,347.0
3.4453580379486084,342.0
3.454779863357544,340.0
3.4654908180236816,343.0
3.47536301612854,346.0
3.4854018688201904,344.0
3.495427131652832,343.0
3.504891872406006,336.0
3.515622854232788,343.0
3.52508807182312,339.0
3.535900831222534,343.0
3.5456488132476807,336.0
3.555107831954956,335.0
3.5658817291259766,347.0
3.5758090019226074,349.0
3.585904836654663,348.0
3.5956637859344482,340.0
3.6051669120788574,353.0
3.6155898571014404,356.0
3.6255578994750977,351.0
3.6358959674835205,355.0
3.6456520557403564,359.0
3.6551051139831543,341.0
3.6658499240875244,335.0
3.6757428646087646,340.0
3.6858959197998047,329.0
3.6956779956817627,338.0
3.7051498889923096,341.0
3.715981960296631,339.0
3.7258949279785156,303.0
3.7358999252319336,345.0
3.745649814605713,347.0
3.755105972290039,339.0
3.7655937671661377,344.0
3.7755239009857178,343.0
3.7853989601135254,350.0
3.795461893081665,323.0
3.8049211502075195,348.0
3.8156349658966064,328.0
3.825608968734741,336.0
3.835891008377075,333.0
3.8453588485717773,332.0
3.8548219203948975,334.0
3.865528106689453,338.0
3.8754570484161377,336.0
3.8854079246520996,331.0
3.8951189517974854,338.0
3.905683994293213,341.0
3.9153940677642822,345.0
3.9251620769500732,340.0
3.9358887672424316,335.0
3.9456419944763184,349.0
3.9551398754119873,351.0
3.965927839279175,350.0
3.9758830070495605,362.0
3.985888957977295,351.0
3.9956517219543457,351.0
4.0051069259643555,350.0
4.015625,341.0
4.025539875030518,348.0
4.035420894622803,336.0
4.045453071594238,349.0
4.054924011230469,347.0
4.0656468868255615,350.0
4.0756189823150635,355.0
4.085896015167236,357.0
4.095618963241577,351.0
4.105111122131348,348.0
4.115912914276123,351.0
4.125868082046509,357.0
4.135886907577515,353.0
4.145673036575317,348.0
4.155160903930664,347.0
4.165923833847046,354.0
4.175704717636108,348.0
4.185899019241333,341.0
4.195653915405273,340.0
4.205158948898315,349.0
4.215904951095581,347.0
4.2257678508758545,348.0
4.235901832580566,357.0
4.2453460693359375,344.0
4.254795074462891,346.0
4.265481948852539,348.0
4.275393962860107,351.0
4.285392999649048,351.0
4.295406818389893,348.0
4.3048670291900635,360.0
4.315591812133789,355.0
4.32517409324646,351.0
4.335901975631714,342.0
4.345712900161743,345.0
4.355216979980469,348.0
4.366030931472778,348.0
4.375995874404907,356.0
4.38588809967041,354.0
4.395641803741455,345.0
4.405104875564575,340.0
4.415699005126953,353.0
4.42562198638916,359.0
4.435884952545166,359.0
4.445625066757202,348.0
4.455118179321289,352.0
4.465902090072632,361.0
4.475821018218994,362.0
4.485891819000244,347.0
4.495635032653809,341.0
4.505117893218994,344.0
4.515916109085083,338.0
4.525822877883911,336.0
4.53590202331543,343.0
4.545641899108887,342.0
4.555138111114502,336.0
4.5659019947052,343.0
4.575854778289795,350.0
4.585883855819702,352.0
4.59565806388855,319.0
4.605143070220947,342.0
4.615950107574463,354.0
4.625923156738281,349.0
4.635878801345825,348.0
4.645381927490234,358.0
4.654826879501343,348.0
4.665579080581665,340.0
4.675533056259155,332.0
4.685889005661011,331.0
4.695641756057739,340.0
4.7051379680633545,342.0
4.715879917144775,338.0
4.725830793380737,330.0
4.735886096954346,340.0
4.745672941207886,337.0
4.755129098892212,346.0
4.765897989273071,327.0
4.775848865509033,351.0
4.785887956619263,331.0
4.795711040496826,350.0
4.805181980133057,353.0
4.815662145614624,350.0
4.825654983520508,337.0
4.835884094238281,319.0
4.845656156539917,331.0
4.855130910873413,307.0
4.86589789390564,331.0
4.8758299350738525,336.0
4.885886907577515,331.0
4.895640134811401,335.0
4.905146837234497,338.0
4.9159629344940186,339.0
4.925903797149658,344.0
4.935876846313477,327.0
4.94567084312439,351.0
4.955179929733276,352.0
4.965946912765503,356.0
4.975906133651733,342.0
4.985882759094238,345.0
4.995664834976196,345.0
5.005126953125,347.0
5.0158960819244385,344.0
5.025923728942871,342.0
5.035886764526367,348.0
5.0453057289123535,347.0
5.054749965667725,343.0
5.065453052520752,349.0
5.075399875640869,351.0
5.085387945175171,351.0
5.095428943634033,339.0
5.104871988296509,350.0
5.115599870681763,353.0
5.125150918960571,349.0
5.135885000228882,359.0
5.145633935928345,344.0
5.155096054077148,344.0
5.165858030319214,339.0
5.1758270263671875,314.0
5.185881853103638,332.0
5.1956727504730225,334.0
5.205027103424072,332.0
5.215743064880371,338.0
5.225682020187378,332.0
5.235875129699707,343.0
5.24564790725708,342.0
5.255171775817871,349.0
5.265974044799805,351.0
5.275961875915527,346.0
5.285880088806152,339.0
5.295639991760254,344.0
5.305099010467529,360.0
5.315871000289917,356.0
5.325799942016602,344.0
5.335879802703857,336.0
5.345647811889648,334.0
5.35514497756958,328.0
5.365599870681763,341.0
5.375527858734131,341.0
5.38588285446167,331.0
5.395695924758911,321.0
5.405237913131714,341.0
5.4160239696502686,338.0
5.425959825515747,350.0
5.435869932174683,347.0
5.4453630447387695,339.0
5.4548139572143555,345.0
5.465679883956909,349.0
5.475672721862793,333.0
5.485882759094238,342.0
5.495642900466919,339.0
5.505141973495483,332.0
5.51590895652771,331.0
5.525815010070801,328.0
5.535878896713257,331.0
5.545699119567871,324.0
5.555163860321045,327.0
5.565935850143433,327.0
5.575891017913818,337.0
5.585882902145386,341.0
5.595717906951904,340.0
5.605134725570679,329.0
5.6159279346466064,341.0
5.625869989395142,338.0
5.635878801345825,343.0
5.645625829696655,345.0
5.655121803283691,330.0
5.665924787521362,339.0
5.67588996887207,333.0
5.685874938964844,335.0
5.695633888244629,330.0
5.705093860626221,335.0
5.715863943099976,330.0
5.725790977478027,329.0
5.735871076583862,338.0
5.745620965957642,343.0
5.755109786987305,341.0
5.765883922576904,335.0
5.775861978530884,343.0
5.785872936248779,337.0
5.7956578731536865,348.0
5.805117845535278,356.0
5.815886735916138,350.0
5.825845003128052,344.0
5.835875034332275,337.0
5.845335960388184,335.0
5.854785919189453,340.0
5.8654961585998535,341.0
5.875457048416138,332.0
5.885375022888184,332.0
5.895405054092407,338.0
5.904836893081665,348.0
5.915553092956543,346.0
5.925511837005615,344.0
5.935867786407471,331.0
5.945688724517822,341.0
5.955195903778076,332.0
5.965981960296631,337.0
5.975801944732666,347.0
5.98587703704834,338.0
5.995633840560913,331.0
6.005095958709717,332.0
6.015647888183594,334.0
6.025589942932129,330.0
6.035879850387573,329.0
6.045506000518799,330.0
6.054985046386719,304.0
6.065722942352295,335.0
6.075638055801392,340.0
6.0858848094940186,348.0
6.095764875411987,344.0
6.105417966842651,343.0
6.115221977233887,343.0
6.125156879425049,341.0
6.135883092880249,350.0
6.145627975463867,350.0
6.155102968215942,344.0
6.165930986404419,338.0
6.175886154174805,340.0
6.185870170593262,336.0
6.195674896240234,342.0
6.2051310539245605,333.0
6.215898752212524,333.0
6.2258570194244385,308.0
6.235869884490967,348.0
6.245360851287842,346.0
6.254814863204956,339.0
6.2655768394470215,339.0
6.275576114654541,336.0
6.285872936248779,352.0
6.295608997344971,342.0
6.305098056793213,355.0
6.315875053405762,344.0
6.325804948806763,330.0
6.33585786819458,333.0
6.345639944076538,331.0
6.355144023895264,326.0
6.365941047668457,332.0
6.375956058502197,331.0
6.38585901260376,324.0
6.395627975463867,329.0
6.405081748962402,335.0
6.415671110153198,331.0
6.425624132156372,332.0
6.435858964920044,338.0
6.445642948150635,341.0
6.455192804336548,334.0
6.466012954711914,342.0
6.4760520458221436,353.0
6.485863924026489,342.0
6.4956090450286865,340.0
6.505072832107544,337.0
6.515833854675293,311.0
6.5257790088653564,334.0
6.535881042480469,337.0
6.545599937438965,324.0
6.555096864700317,340.0
6.565859079360962,333.0
6.575814962387085,322.0
6.585866928100586,330.0
6.59565281867981,315.0
6.6051249504089355,335.0
6.615919828414917,339.0
6.625903844833374,337.0
6.635857820510864,318.0
6.645344018936157,341.0
6.654796123504639,329.0
6.665517091751099,338.0
6.675462961196899,331.0
6.685402870178223,332.0
6.695485830307007,334.0
6.7049360275268555,330.0
6.715656995773315,323.0
6.725200891494751,340.0
6.735871076583862,340.0
6.745508909225464,332.0
6.754960775375366,335.0
6.765710115432739,346.0
6.775691032409668,354.0
6.785856008529663,348.0
6.7956438064575195,356.0
6.805096864700317,353.0
6.8156678676605225,341.0
6.8256518840789795,335.0
6.835897922515869,332.0
6.845633029937744,344.0
6.855134963989258,338.0
6.865931034088135,341.0
6.875864028930664,339.0
6.885864973068237,333.0
6.895605087280273,331.0
6.90506386756897,341.0
6.915831089019775,342.0
6.925782918930054,345.0
6.935863018035889,343.0
6.94567608833313,343.0
6.95513916015625,351.0
6.965901136398315,354.0
6.975790739059448,350.0
6.985863924026489,342.0
6.995643854141235,330.0
7.005137920379639,337.0
7.0159077644348145,337.0
7.025870084762573,332.0
7.035861968994141,312.0
7.045352935791016,331.0
7.0548059940338135,329.0
7.065507173538208,341.0
7.075441837310791,340.0
7.085361957550049,339.0
7.095415115356445,344.0
7.104866981506348,344.0
7.115617036819458,344.0
7.125135898590088,342.0
7.135853052139282,341.0
7.145605802536011,351.0
7.155105113983154,339.0
7.165607929229736,332.0
7.17555570602417,333.0
7.185849905014038,330.0
7.195624828338623,331.0
7.205087900161743,325.0
7.215587139129639,323.0
7.22552490234375,301.0
7.235857963562012,329.0
7.2455689907073975,329.0
7.255028009414673,339.0
7.265762090682983,312.0
7.275698900222778,336.0
7.285850763320923,337.0
7.295576810836792,344.0
7.305073976516724,343.0
7.315878868103027,342.0
7.325817823410034,339.0
7.335845947265625,334.0
7.345615863800049,336.0
7.355117082595825,337.0
7.365885972976685,344.0
7.3758320808410645,347.0
7.385862827301025,340.0
7.395619869232178,332.0
7.405167818069458,347.0
7.415921926498413,349.0
7.425925970077515,348.0
7.435845851898193,361.0
7.445328950881958,329.0
7.4547388553619385,351.0
7.465446949005127,352.0
7.475345849990845,357.0
7.485350847244263,334.0
7.495373010635376,342.0
7.504840850830078,340.0
7.515563011169434,338.0
7.52505898475647,330.0
7.535869836807251,338.0
7.545629024505615,334.0
7.555159091949463,330.0
7.565913915634155,343.0
7.575853109359741,322.0
7.585849046707153,345.0
7.595645904541016,345.0
7.605119943618774,350.0
7.615769863128662,341.0
7.625700950622559,339.0
7.635843753814697,353.0
7.645606994628906,335.0
7.6550679206848145,338.0
7.665830850601196,342.0
7.675760984420776,345.0
7.685849905014038,333.0
7.69557785987854,342.0
7.705069065093994,328.0
7.715842008590698,330.0
7.725774765014648,320.0
7.7358479499816895,343.0
7.7456090450286865,344.0
7.755076885223389,352.0
7.765876054763794,341.0
7.775838851928711,337.0
7.785846948623657,343.0
7.79567289352417,318.0
7.805140018463135,348.0
7.815912961959839,345.0
7.825852870941162,338.0
7.8358447551727295,337.0
7.845345973968506,340.0
7.854763984680176,338.0
7.865466833114624,312.0
7.875427007675171,341.0
7.885352849960327,330.0
7.895384788513184,314.0
7.904815912246704,352.0
7.915519952774048,348.0
7.925412893295288,347.0
7.935348033905029,354.0
7.944770097732544,350.0
7.955276966094971,343.0
7.964952707290649,354.0
7.975924015045166,360.0
7.98584508895874,349.0
7.9956700801849365,342.0
8.005155801773071,341.0
8.015734910964966,334.0
8.025676965713501,333.0
8.035840034484863,332.0
8.045592069625854,327.0
8.055058002471924,323.0
8.0657958984375,325.0
8.075690984725952,336.0
8.085838794708252,335.0
8.095606088638306,333.0
8.10509181022644,334.0
8.11587405204773,320.0
8.125771045684814,338.0
8.135836839675903,343.0
8.145598888397217,325.0
8.155075788497925,338.0
8.165854930877686,346.0
8.175545930862427,329.0
8.185840845108032,341.0
8.195193767547607,338.0
8.205770015716553,348.0
8.215512037277222,348.0
8.225443124771118,342.0
8.235347986221313,338.0
8.245347738265991,365.0
8.254809856414795,346.0
8.265509843826294,356.0
8.275428771972656,356.0
8.28534984588623,362.0
8.295372009277344,366.0
8.304836750030518,360.0
8.315555095672607,360.0
8.325484991073608,350.0
8.335349082946777,348.0
8.345375061035156,353.0
8.35484790802002,347.0
8.36555004119873,344.0
8.37548279762268,316.0
8.385833024978638,336.0
8.395619869232178,307.0
8.405100107192993,345.0
8.415550947189331,343.0
8.425501823425293,350.0
8.435842037200928,337.0
8.445621967315674,339.0
8.45510196685791,336.0
8.465898990631104,347.0
8.475833892822266,338.0
8.485843896865845,334.0
8.495653867721558,338.0
8.50514006614685,330.0
8.51592493057251,337.0
8.525903940200806,334.0
8.535844802856445,335.0
8.545426845550537,335.0
8.554896831512451,331.0
8.56563401222229,341.0
8.57556676864624,341.0
8.585845947265625,343.0
8.595651865005493,317.0
8.605195045471191,342.0
8.615992069244385,346.0
8.625937938690186,345.0
8.635840892791748,355.0
8.645313024520874,350.0
8.654762029647827,340.0
8.665454864501953,343.0
8.67540693283081,327.0
8.685351848602295,334.0
8.695420980453491,340.0
8.704889059066772,345.0
8.7156081199646,339.0
8.724975824356079,334.0
8.73583698272705,358.0
8.745699167251587,345.0
8.755216836929321,351.0
8.764890909194946,348.0
8.77589201927185,348.0
8.785839796066284,342.0
8.795669078826904,334.0
8.805130958557129,353.0
8.815481185913086,327.0
8.82543683052063,341.0
8.835363149642944,311.0
8.845481872558594,325.0
8.85492992401123,327.0
8.865677118301392,331.0
8.875586986541748,343.0
8.88588285446167,335.0
8.8955659866333,331.0
8.90501093864441,333.0
8.915761947631836,346.0
8.925684928894043,349.0
8.93582797050476,352.0
8.94558596611023,335.0
8.95504379272461,345.0
8.965833902359009,348.0
8.975789070129395,334.0
8.985836029052734,346.0
8.995612859725952,342.0
9.005116939544678,343.0
9.015881061553955,341.0
9.025820970535278,345.0
9.035832166671753,351.0
9.045190811157227,341.0
9.055730819702148,334.0
9.065483093261719,355.0
9.075438737869263,356.0
9.085345983505249,355.0
9.095412015914917,353.0
9.104920148849487,361.0
9.115784883499146,354.0
9.125760078430176,347.0
9.135869026184082,337.0
9.145653009414673,362.0
9.155144929885864,348.0
9.16593885421753,344.0
9.175896883010864,341.0
9.185837030410767,338.0
9.195646047592163,341.0
9.205086946487427,339.0
9.215773820877075,338.0
9.225742816925049,329.0
9.23583197593689,341.0
9.245584964752197,344.0
9.255077838897705,351.0
9.26588487625122,341.0
9.275882959365845,342.0
9.285834074020386,350.0
9.295577764511108,342.0
9.305091142654419,357.0
9.31581997871399,355.0
9.32574200630188,347.0
9.335824966430664,339.0
9.345605850219727,344.0
9.355066776275635,318.0
9.365819931030273,336.0
9.375773906707764,338.0
9.385831832885742,337.0
9.395596027374268,344.0
9.405091762542725,352.0
9.41586685180664,321.0
9.42583703994751,347.0
9.435837984085083,346.0
9.445288896560669,344.0
9.454699039459229,347.0
9.465375900268555,358.0
9.475303888320923,357.0
9.48535704612732,345.0
9.495566844940186,342.0
9.505070924758911,345.0
9.515843868255615,316.0
9.525713920593262,340.0
9.535834789276123,321.0
9.54565715789795,335.0
9.555152893066406,337.0
9.565945863723755,343.0
9.575875043869019,350.0
9.585827112197876,346.0
9.59562087059021,355.0
9.60509705543518,356.0
9.615555763244629,343.0
9.62550401687622,349.0
9.635822772979736,352.0
9.645595788955688,355.0
9.655078887939453,351.0
9.66589903831482,352.0
9.675817012786865,350.0
9.685832977294922,326.0
9.695567846298218,340.0
9.70505404472351,346.0
9.715845823287964,349.0
9.725838899612427,343.0
9.735820055007935,355.0
9.74559211730957,357.0
9.755080938339233,362.0
9.765855073928833,355.0
9.775798082351685,358.0
9.785824060440063,355.0
9.795599937438965,361.0
9.805068016052246,367.0
9.815813779830933,365.0
9.825772047042847,349.0
9.835832118988037,343.0
9.845327854156494,340.0
9.854783058166504,345.0
9.865483045578003,349.0
9.875419855117798,352.0
9.885333061218262,355.0
9.895384788513184,343.0
9.904847860336304,352.0
9.91559886932373,357.0
9.925139904022217,367.0
9.935823917388916,342.0
9.945584774017334,345.0
9.955043077468872,370.0
9.965814113616943,371.0
9.975797891616821,368.0
9.98581600189209,367.0
9.995585918426514,351.0
10.005040884017944,356.0
10.01564908027649,357.0
10.025607824325562,348.0
10.03581690788269,355.0
10.045582056045532,351.0
10.055032968521118,357.0
10.0657958984375,362.0
10.075721979141235,346.0
10.085827827453613,340.0
10.095592021942139,345.0
10.10508108139038,338.0
10.115844964981079,361.0
10.125796794891357,359.0
10.135815858840942,373.0
10.145581007003784,377.0
10.155084133148193,361.0
10.165844917297363,363.0
10.175266027450562,354.0
10.185349941253662,363.0
10.194819927215576,362.0
10.205336093902588,361.0
10.215003967285156,359.0
10.226002931594849,334.0
10.235821962356567,367.0
10.24533200263977,370.0
10.254791975021362,372.0
10.265508890151978,365.0
10.275429964065552,361.0
10.285341024398804,364.0
10.295395135879517,366.0
10.304887056350708,368.0
10.315617084503174,369.0
10.325029850006104,358.0
10.33580994606018,362.0
10.345568895339966,354.0
10.355019092559814,359.0
10.365753889083862,337.0
10.375715017318726,361.0
10.385812997817993,355.0
10.3955819606781,355.0
10.405048131942749,361.0
10.415658950805664,362.0
10.425638914108276,367.0
10.435815811157227,344.0
10.445569038391113,367.0
10.455023765563965,360.0
10.465752840042114,369.0
10.475682020187378,375.0
10.485826969146729,371.0
10.495556831359863,364.0
10.505061864852905,359.0
10.515841960906982,359.0
10.525804042816162,366.0
10.535820960998535,359.0
10.545622110366821,360.0
10.555100917816162,352.0
10.565932989120483,365.0
10.575799942016602,369.0
10.58582091331482,369.0
10.595165967941284,376.0
10.605708122253418,377.0
10.615470170974731,369.0
10.6254301071167,365.0
10.635324954986572,369.0
10.645294904708862,369.0
10.654751062393188,367.0
10.665445804595947,350.0
10.675379991531372,347.0
10.68531584739685,351.0
10.69535493850708,328.0
10.704823017120361,346.0
10.715567827224731,351.0
10.72514796257019,347.0
10.735816955566406,367.0
10.745548009872437,345.0
10.755021095275879,355.0
10.765848159790039,361.0
10.775795936584473,370.0
10.785820007324219,353.0
10.795631885528564,375.0
10.80507493019104,382.0
10.81551480293274,382.0
10.825454950332642,370.0
10.835335969924927,347.0
10.845428943634033,372.0
10.854896783828735,365.0
10.86564302444458,370.0
10.87557601928711,371.0
10.885809898376465,376.0
10.89554500579834,368.0
10.90503978729248,377.0
10.91583800315857,386.0
10.925756931304932,360.0
10.935812950134277,357.0
10.94559097290039,346.0
10.955050945281982,377.0
10.965859174728394,384.0
10.975848913192749,382.0
10.985801935195923,376.0
10.995579957962036,369.0
11.005083799362183,361.0
11.015857934951782,359.0
11.0258150100708,333.0
11.035812854766846,344.0
11.045367956161499,362.0
11.054831743240356,344.0
11.065557956695557,351.0
11.075523138046265,371.0
11.085807800292969,376.0
11.095582962036133,372.0
11.10507583618164,361.0
11.115873098373413,365.0
11.125800848007202,367.0
11.135798931121826,380.0
11.145560026168823,377.0
11.155012845993042,366.0
11.165788888931274,365.0
11.17573881149292,337.0
11.185816049575806,359.0
11.195581912994385,356.0
11.205051898956299,366.0
11.215687990188599,363.0
11.22562575340271,354.0
11.235810995101929,366.0
11.245566844940186,365.0
11.255052089691162,362.0
11.265808820724487,360.0
11.275747060775757,351.0
11.285799980163574,335.0
11.29554796218872,352.0
11.305036067962646,360.0
11.315816879272461,355.0
11.32572603225708,342.0
11.335830926895142,316.0
11.345585823059082,332.0
11.355041027069092,335.0
11.36580777168274,332.0
11.375870943069458,339.0
11.38581895828247,347.0
11.3955659866333,350.0
11.405017852783203,356.0
11.415825843811035,363.0
11.425879955291748,361.0
11.43582272529602,357.0
11.445351839065552,365.0
11.454817056655884,367.0
11.465583801269531,366.0
11.475505828857422,370.0
11.485816955566406,362.0
11.495543956756592,341.0
11.505002975463867,353.0
11.515778064727783,348.0
11.52516508102417,346.0
11.535393953323364,338.0
11.545480012893677,362.0
11.554930925369263,353.0
11.565688133239746,367.0
11.575645923614502,356.0
11.585797786712646,368.0
11.595576047897339,368.0
11.605032920837402,370.0
11.615771770477295,346.0
11.625892877578735,373.0
11.635807037353516,372.0
11.645534992218018,376.0
11.654859066009521,370.0
11.665663957595825,364.0
11.675741910934448,364.0
11.685818910598755,361.0
11.695546865463257,361.0
11.705013036727905,337.0
11.71582293510437,360.0
11.725995063781738,359.0
11.735801935195923,364.0
11.745617866516113,374.0
11.755088806152344,367.0
11.765893936157227,372.0
11.7758629322052,367.0
11.785825967788696,362.0
11.795535802841187,335.0
11.805056095123291,373.0
11.815952777862549,367.0
11.826075792312622,355.0
11.835379838943481,343.0
11.84534502029419,339.0
11.854818105697632,347.0
11.865599870681763,321.0
11.875635862350464,333.0
11.885810852050781,321.0
11.895537853240967,323.0
11.90498399734497,336.0
11.915854930877686,329.0
11.925891160964966,320.0
11.9358069896698,346.0
11.945548057556152,345.0
11.955035924911499,319.0
11.965919017791748,349.0
11.975980997085571,368.0
11.985798835754395,374.0
11.99563193321228,369.0
12.005144119262695,369.0
12.015635013580322,371.0
12.025775909423828,378.0
12.035808086395264,383.0
12.045604944229126,385.0
12.055084943771362,378.0
12.065859079360962,366.0
12.075853109359741,396.0
12.085803031921387,390.0
12.09561800956726,379.0
12.105127811431885,389.0
12.116015911102295,382.0
12.126142024993896,376.0
12.135401010513306,387.0
12.145604848861694,383.0
12.155086040496826,385.0
12.165989875793457,367.0
12.175933837890625,353.0
12.185816764831543,370.0
12.195616006851196,378.0
12.205086946487427,377.0
12.215914964675903,382.0
12.225950956344604,370.0
12.23581600189209,359.0
12.245336771011353,384.0
12.254800796508789,396.0
12.265398979187012,379.0
12.27545690536499,357.0
12.285815000534058,382.0
12.295530080795288,392.0
12.30498480796814,395.0
12.31571888923645,389.0
12.325212955474854,386.0
12.3353910446167,385.0
12.34551191329956,387.0
12.35496973991394,387.0
12.365757942199707,389.0
12.375779151916504,389.0
12.385792970657349,389.0
12.395550012588501,405.0
12.405014991760254,416.0
12.415769815444946,410.0
12.42572808265686,418.0
12.435791969299316,414.0
12.445547103881836,413.0
12.455000877380371,413.0
12.465731859207153,420.0
12.475664854049683,426.0
12.485797882080078,416.0
12.495534181594849,404.0
12.505009889602661,401.0
12.515810012817383,403.0
12.525887966156006,398.0
12.535817861557007,400.0
12.545526027679443,388.0
12.554970979690552,380.0
12.565737009048462,389.0
12.575711011886597,397.0
12.585803985595703,396.0
12.595557928085327,394.0
12.60500979423523,380.0
12.615787029266357,385.0
12.625845909118652,389.0
12.635796070098877,395.0
12.645336866378784,374.0
12.65478777885437,387.0
12.66557002067566,369.0
12.675617933273315,363.0
12.68580412864685,353.0
12.695598840713501,394.0
12.705090045928955,392.0
12.71599006652832,373.0
12.726094007492065,370.0
12.735322952270508,390.0
12.745621919631958,388.0
12.75511884689331,394.0
12.765904903411865,394.0
12.775947093963623,402.0
12.785804033279419,408.0
12.795560836791992,403.0
12.80501675605774,406.0
12.815781831741333,393.0
12.825748920440674,392.0
12.835792779922485,388.0
12.84557580947876,397.0
12.855098962783813,392.0
12.865966081619263,404.0
12.87617301940918,403.0
12.885392904281616,393.0
12.895548820495605,385.0
12.90500783920288,389.0
12.915931940078735,398.0
12.925971984863281,412.0
12.935790777206421,405.0
12.945610046386719,410.0
12.955089807510376,383.0
12.96586298942566,384.0
12.975907802581787,414.0
12.985783100128174,406.0
12.99555778503418,410.0
13.005016088485718,409.0
13.015793800354004,409.0
13.025738000869751,399.0
13.03578805923462,387.0
13.045233964920044,413.0
13.054656028747559,416.0
13.065337181091309,414.0
13.07536792755127,417.0
13.085798978805542,411.0
13.095519065856934,414.0
13.104991912841797,426.0
13.115826845169067,416.0
13.125838041305542,417.0
13.1357901096344,421.0
13.14553689956665,398.0
13.15498399734497,425.0
13.16573691368103,425.0
13.175740003585815,417.0
13.18580412864685,407.0
13.195549964904785,388.0
13.205006122589111,421.0
13.215734958648682,406.0
13.225733757019043,395.0
13.2357759475708,412.0
13.245558977127075,427.0
13.2550368309021,409.0
13.265821933746338,388.0
13.275809049606323,393.0
13.285783052444458,410.0
13.295508861541748,426.0
13.304966926574707,422.0
13.3157639503479,379.0
13.325786828994751,397.0
13.335801124572754,397.0
13.345587015151978,409.0
13.355057954788208,417.0
13.365895986557007,430.0
13.375885009765625,416.0
13.385781049728394,410.0
13.395590782165527,432.0
13.40507197380066,445.0
13.415839910507202,434.0
13.425794124603271,431.0
13.435791969299316,412.0
13.445334911346436,452.0
13.454764127731323,430.0
13.4654860496521,451.0
13.475395917892456,456.0
13.485290050506592,457.0
13.495316982269287,443.0
13.504750728607178,408.0
13.515463829040527,439.0
13.525192022323608,436.0
13.535377979278564,433.0
13.545504093170166,396.0
13.554955959320068,425.0
13.565698146820068,447.0
13.575628995895386,453.0
13.585774898529053,434.0
13.595577955245972,389.0
13.605036973953247,429.0
13.615793943405151,448.0
13.625800848007202,459.0
13.635770797729492,458.0
13.645570039749146,459.0
13.655039072036743,445.0
13.665798902511597,441.0
13.675702095031738,447.0
13.685771942138672,441.0
13.695598840713501,446.0
13.705106019973755,436.0
13.715897798538208,425.0
13.725785732269287,449.0
13.73577094078064,445.0
13.74556589126587,432.0
13.755034923553467,433.0
13.765800952911377,449.0
13.775722980499268,448.0
13.785773992538452,439.0
13.795569896697998,431.0
13.805040836334229,456.0
13.81580400466919,441.0
13.825716972351074,424.0
13.835769176483154,428.0
13.845330953598022,428.0
13.854767799377441,400.0
13.865501880645752,430.0
13.875386953353882,435.0
13.885286808013916,432.0
13.89543080329895,424.0
13.90494990348816,432.0
13.915725946426392,437.0
13.925091028213501,431.0
13.93576693534851,444.0
13.945518016815186,441.0
13.954969882965088,435.0
13.965715885162354,443.0
13.975644826889038,447.0
13.98578691482544,432.0
13.995574951171875,427.0
14.005050897598267,417.0
14.015791893005371,422.0
14.025716066360474,427.0
14.035765886306763,417.0
14.045567035675049,415.0
14.055047988891602,408.0
14.065821886062622,417.0
14.075709819793701,401.0
14.08576488494873,397.0
14.095580816268921,393.0
14.105098962783813,420.0
14.115897178649902,419.0
14.125881910324097,409.0
14.135766983032227,430.0
14.145576000213623,436.0
14.15504789352417,424.0
14.165818929672241,415.0
14.175749778747559,407.0
14.185763835906982,407.0
14.195573091506958,412.0
14.205044031143188,411.0
14.215813875198364,419.0
14.22573184967041,418.0
14.23576283454895,419.0
14.245322942733765,424.0
14.254761934280396,424.0
14.265501976013184,425.0
14.275462865829468,406.0
14.285794973373413,420.0
14.29554295539856,434.0
14.305016994476318,430.0
14.315860986709595,430.0
14.325998783111572,417.0
14.335788011550903,422.0
14.345560073852539,419.0
14.355026960372925,406.0
14.365851879119873,407.0
14.375939130783081,419.0
14.38578200340271,391.0
14.395571947097778,414.0
14.40503978729248,426.0
14.415804862976074,399.0
14.425815105438232,418.0
14.435772895812988,424.0
14.445561170578003,422.0
14.455030918121338,409.0
14.465804100036621,419.0
14.475780963897705,442.0
14.485777854919434,411.0
14.495573043823242,406.0
14.505044937133789,405.0
14.515833139419556,415.0
14.525768995285034,417.0
14.535775899887085,425.0
14.545554876327515,423.0
14.55505895614624,411.0
14.565963983535767,426.0
14.575913906097412,426.0
14.585778951644897,431.0
14.595587015151978,405.0
14.605094909667969,429.0
14.615986824035645,433.0
14.626118898391724,425.0
14.635365962982178,436.0
14.645323038101196,437.0
14.654799938201904,417.0
14.665629863739014,411.0
14.675644874572754,411.0
14.68578290939331,404.0
14.695497989654541,419.0
14.704952001571655,420.0
14.715844869613647,425.0
14.725974082946777,416.0
14.735782861709595,416.0
14.74555492401123,416.0
14.75501799583435,425.0
14.765808820724487,420.0
14.775758743286133,422.0
14.785783052444458,449.0
14.7955961227417,450.0
14.80507493019104,456.0
14.815865755081177,447.0
14.826051712036133,448.0
14.835767984390259,442.0
14.845556020736694,438.0
14.855037927627563,429.0
14.865850925445557,436.0
14.87583589553833,435.0
14.885771989822388,419.0
14.895537853240967,418.0
14.905003070831299,434.0
14.915791749954224,415.0
14.925702810287476,398.0
14.935785055160522,397.0
14.945558071136475,419.0
14.95507001876831,418.0
14.965912818908691,396.0
14.975841045379639,405.0
14.985762119293213,410.0
14.995526790618896,385.0
15.004992008209229,402.0
15.015767097473145,406.0
15.025738954544067,414.0
15.035787105560303,415.0
15.04532504081726,393.0
15.05476999282837,397.0
15.065532922744751,430.0
15.075464963912964,431.0
15.085789918899536,425.0
15.095589876174927,406.0
15.105118989944458,416.0
15.116041898727417,423.0
15.12613296508789,418.0
15.135761976242065,424.0
15.145572900772095,415.0
15.155043125152588,421.0
15.165903806686401,413.0
15.176044940948486,392.0
15.185791015625,407.0
15.195580959320068,411.0
15.205052852630615,415.0
15.215795993804932,415.0
15.225825071334839,415.0
15.235774993896484,426.0
15.245553970336914,428.0
15.255069971084595,436.0
15.265878915786743,429.0
15.275933980941772,437.0
15.28576111793518,437.0
15.295545101165771,445.0
15.305022954940796,447.0
15.315928936004639,438.0
15.326009750366211,426.0
15.335777044296265,430.0
15.345566987991333,431.0
15.355035781860352,405.0
15.365827083587646,396.0
15.375836849212646,428.0
15.385758876800537,416.0
15.39552903175354,415.0
15.405022859573364,429.0
15.41586685180664,425.0
15.425902128219604,404.0
15.435772895812988,418.0
15.445307970046997,401.0
15.454740047454834,421.0
15.465443849563599,433.0
15.475380897521973,446.0
15.485353946685791,430.0
15.49543285369873,416.0
15.504869937896729,429.0
15.515653848648071,432.0
15.525192975997925,428.0
15.535367012023926,409.0
15.545444965362549,431.0
15.554848909378052,423.0
15.565583944320679,430.0
15.575534105300903,435.0
15.585771083831787,435.0
15.595526933670044,437.0
15.60499095916748,441.0
15.615801095962524,437.0
15.62598991394043,438.0
15.635777950286865,434.0
15.645566940307617,436.0
15.655025959014893,430.0
15.665944814682007,428.0
15.67603588104248,420.0
15.68576693534851,428.0
15.695535898208618,427.0
15.7050039768219,424.0
15.715877771377563,414.0
15.725958824157715,408.0
15.735757112503052,423.0
15.745603799819946,425.0
15.75512981414795,427.0
15.765928030014038,423.0
15.775857925415039,422.0
15.785773992538452,395.0
15.795517921447754,441.0
15.804991960525513,442.0
15.815836906433105,422.0
15.825853824615479,406.0
15.835769176483154,420.0
15.845324039459229,421.0
15.854794979095459,423.0
15.865561723709106,420.0
15.875504970550537,427.0
15.885756969451904,416.0
15.89549994468689,404.0
15.904958009719849,391.0
15.915783882141113,412.0
15.92589282989502,420.0
15.935785055160522,398.0
15.94554090499878,409.0
15.955015897750854,403.0
15.965784788131714,446.0
15.975765943527222,440.0
15.985749006271362,405.0
15.995567798614502,418.0
16.00506901741028,421.0
16.015492916107178,428.0
16.025458812713623,432.0
16.0357608795166,440.0
16.045525074005127,446.0
16.054999113082886,434.0
16.065742015838623,429.0
16.075670957565308,430.0
16.08576798439026,438.0
16.095520973205566,438.0
16.105026960372925,450.0
16.116015911102295,446.0
16.126142024993896,457.0
16.135762929916382,451.0
16.145549058914185,447.0
16.155040979385376,438.0
16.165899991989136,439.0
16.175856828689575,439.0
16.185747861862183,436.0
16.195546865463257,430.0
16.20504593849182,412.0
16.215953826904297,434.0
16.226083040237427,432.0
16.23535990715027,448.0
16.245312929153442,436.0
16.2547447681427,417.0
16.265522003173828,441.0
16.27547287940979,447.0
16.285763025283813,442.0
16.295395851135254,445.0
16.304835081100464,460.0
16.315621852874756,448.0
16.32560110092163,422.0
16.335771799087524,443.0
16.345550775527954,423.0
16.355054140090942,418.0
16.36592388153076,430.0
16.376029014587402,428.0
16.385760068893433,429.0
16.39555311203003,411.0
16.40503191947937,440.0
16.41579294204712,423.0
16.425734996795654,420.0
16.435744047164917,436.0
16.44552183151245,449.0
16.455007076263428,452.0
16.465811014175415,451.0
16.47573685646057,461.0
16.485766887664795,452.0
16.495482921600342,444.0
16.50496482849121,441.0
16.515769004821777,439.0
16.525779008865356,432.0
16.535874128341675,442.0
16.545459985733032,413.0
16.554971933364868,440.0
16.56592583656311,458.0
16.57591986656189,433.0
16.58637499809265,416.0
16.59612488746643,443.0
16.605661869049072,451.0
16.615407943725586,461.0
16.62536096572876,460.0
16.635279893875122,466.0
16.645312070846558,463.0
16.65475106239319,465.0
16.665467977523804,457.0
16.675374031066895,447.0
16.68526601791382,459.0
16.695294857025146,453.0
16.704750776290894,446.0
16.715463876724243,434.0
16.72519302368164,442.0
16.73527693748474,467.0
16.74533987045288,466.0
16.7547709941864,471.0
16.76553702354431,439.0
16.775523900985718,465.0
16.785762071609497,460.0
16.79550790786743,459.0
16.804980039596558,465.0
16.81577706336975,461.0
16.825856924057007,458.0
16.83576202392578,439.0
16.84549307823181,448.0
16.854969024658203,454.0
16.8658230304718,440.0
16.87543296813965,425.0
16.885727882385254,424.0
16.895473957061768,437.0
16.904930114746094,440.0
16.915820121765137,436.0
16.925872802734375,434.0
16.935738801956177,442.0
16.945538997650146,447.0
16.95500898361206,434.0
16.965795040130615,443.0
16.975754976272583,451.0
16.985752820968628,431.0
16.995523929595947,431.0
17.005003929138184,450.0
17.015854835510254,478.0
17.025945901870728,468.0
17.035743951797485,426.0
17.04528784751892,442.0
17.05476188659668,457.0
17.065497875213623,459.0
17.075422048568726,492.0
17.085755825042725,487.0
17.09542202949524,479.0
17.104899168014526,485.0
17.11579394340515,478.0
17.125958919525146,479.0
17.1357319355011,489.0
17.145497798919678,484.0
17.154957056045532,478.0
17.16574215888977,476.0
17.175779819488525,472.0
17.185739994049072,467.0
17.195491790771484,466.0
17.204941034317017,475.0
17.215821027755737,436.0
17.225936889648438,446.0
17.235728979110718,447.0
17.24552607536316,470.0
17.255005836486816,466.0
17.265853881835938,448.0
17.275907039642334,466.0
17.285731077194214,459.0
17.295544147491455,453.0
17.30502700805664,463.0
17.31579279899597,459.0
17.325788974761963,437.0
17.335749864578247,429.0
17.345539808273315,428.0
17.355015993118286,421.0
17.365813970565796,430.0
17.375915050506592,452.0
17.38575005531311,415.0
17.39549684524536,415.0
17.40495204925537,433.0
17.415783882141113,444.0
17.425874948501587,433.0
17.435735940933228,453.0
17.445242881774902,446.0
17.45467185974121,457.0
17.465384006500244,451.0
17.475335836410522,458.0
17.485338926315308,450.0
17.49540090560913,443.0
17.504842042922974,431.0
17.5155668258667,420.0
17.525194883346558,420.0
17.535253047943115,424.0
17.54528307914734,423.0
17.55470895767212,421.0
17.56548500061035,438.0
17.575516939163208,441.0
17.585731029510498,442.0
17.595505952835083,418.0
17.604974031448364,437.0
17.61581802368164,446.0
17.625977039337158,450.0
17.635732889175415,463.0
17.645548105239868,458.0
17.655066967010498,450.0
17.665838718414307,459.0
17.675852060317993,438.0
17.685763120651245,444.0
17.695518016815186,447.0
17.70499897003174,440.0
17.715869903564453,440.0
17.726019144058228,424.0
17.73574709892273,446.0
17.745544910430908,451.0
17.755043029785156,446.0
17.76585602760315,429.0
17.7759108543396,454.0
17.785722970962524,435.0
17.79553985595703,435.0
17.805009841918945,463.0
17.815884113311768,452.0
17.82588291168213,457.0
17.83573889732361,430.0
17.845309019088745,429.0
17.85474681854248,439.0
17.865521907806396,442.0
17.875480890274048,421.0
17.88574481010437,409.0
17.895460844039917,410.0
17.904927968978882,425.0
17.915726900100708,444.0
17.925776958465576,429.0
17.935739994049072,407.0
17.945554971694946,405.0
17.955039024353027,408.0
17.96583080291748,424.0
17.975767135620117,424.0
17.985728979110718,400.0
17.995547771453857,364.0
18.005022048950195,390.0
18.015661001205444,400.0
18.025604963302612,379.0
18.035732984542847,354.0
18.045454025268555,384.0
18.0549418926239,382.0
18.065703868865967,388.0
18.07562494277954,397.0
18.08571696281433,364.0
18.095526933670044,381.0
18.10500693321228,403.0
18.115811109542847,412.0
18.125764846801758,406.0
18.1357319355011,410.0
18.14552903175354,415.0
18.15506887435913,405.0
18.165907859802246,410.0
18.17573094367981,408.0
18.18572688102722,401.0
18.19548487663269,401.0
18.204941987991333,389.0
18.215702056884766,385.0
18.225353002548218,358.0
18.235731840133667,356.0
18.24529194831848,366.0
18.254714965820312,379.0
18.26551389694214,362.0
18.275609731674194,365.0
18.285732746124268,342.0
18.295459032058716,340.0
18.30494213104248,388.0
18.315753936767578,397.0
18.325764894485474,405.0
18.335726022720337,404.0
18.345473051071167,387.0
18.354936122894287,399.0
18.365678787231445,418.0
18.37563395500183,417.0
18.385726928710938,416.0
18.39547896385193,424.0
18.404931783676147,442.0
18.415790796279907,445.0
18.42589497566223,448.0
18.43573498725891,457.0
18.445454835891724,461.0
18.454905033111572,447.0
18.465799808502197,444.0
18.475928783416748,418.0
18.48571801185608,400.0
18.495523929595947,430.0
18.50501298904419,417.0
18.515812873840332,404.0
18.525714874267578,375.0
18.535712957382202,363.0
18.545480012893677,382.0
18.554935932159424,375.0
18.565720081329346,342.0
18.575759887695312,311.0
18.58572292327881,323.0
18.595364809036255,365.0
18.60485601425171,367.0
18.61562180519104,297.0
18.625582933425903,275.0
18.635737895965576,310.0
18.645286798477173,369.0
18.65474796295166,365.0
18.665467977523804,347.0
18.67550492286682,359.0
18.685725927352905,373.0
18.695455074310303,377.0
18.704916954040527,390.0
18.715693950653076,412.0
18.725175142288208,400.0
18.735327005386353,398.0
18.745409965515137,392.0
18.754854917526245,365.0
18.765647888183594,330.0
18.77562189102173,309.0
18.785717964172363,286.0
18.795499086380005,326.0
18.80496382713318,339.0
18.815719842910767,258.0
18.825793027877808,234.0
18.835735082626343,235.0
18.84547781944275,279.0
18.85481286048889,292.0
18.86558198928833,300.0
18.875552892684937,333.0
18.885705947875977,359.0
18.89545702934265,359.0
18.90490484237671,379.0
18.915705919265747,406.0
18.925652980804443,432.0
18.935717821121216,408.0
18.94546675682068,411.0
18.954926013946533,424.0
18.965698957443237,454.0
18.97566294670105,464.0
18.985732793807983,464.0
18.995486974716187,412.0
19.004945993423462,415.0
19.01579999923706,422.0
19.025923013687134,443.0
19.035732984542847,437.0
19.045305013656616,436.0
19.05475091934204,403.0
19.06549882888794,423.0
19.075450897216797,414.0
19.08571195602417,419.0
19.0954487323761,408.0
19.10490393638611,412.0
19.115718841552734,414.0
19.12568974494934,418.0
19.13572406768799,399.0
19.145455837249756,380.0
19.154809951782227,323.0
19.165539026260376,338.0
19.17550277709961,330.0
19.185719966888428,366.0
19.19551372528076,368.0
19.20503807067871,367.0
19.21574306488037,336.0
19.2258939743042,330.0
19.235728979110718,350.0
19.245458841323853,363.0
19.25493884086609,389.0
19.265815019607544,382.0
19.275854110717773,392.0
19.28571391105652,399.0
19.295450925827026,413.0
19.30489492416382,419.0
19.31571102142334,383.0
19.325873851776123,378.0
19.335721969604492,408.0
19.345515966415405,406.0
19.354996919631958,403.0
19.365869998931885,392.0
19.375868797302246,399.0
19.385732889175415,390.0
19.39552092552185,389.0
19.405019998550415,392.0
19.415821075439453,400.0
19.42606496810913,381.0
19.435712099075317,389.0
19.44530415534973,395.0
19.454747915267944,371.0
19.46555995941162,361.0
19.475636959075928,369.0
19.485710859298706,382.0
19.495446920394897,368.0
19.504915952682495,376.0
19.515722036361694,364.0
19.52510905265808,375.0
19.535332918167114,391.0
19.545402765274048,348.0
19.55486011505127,344.0
19.565614938735962,361.0
19.57557988166809,372.0
19.58572292327881,364.0
19.595478057861328,377.0
19.604942083358765,342.0
19.615705728530884,333.0
19.625671863555908,345.0
19.635700941085815,369.0
19.64546489715576,372.0
19.6549289226532,328.0
19.665784120559692,327.0
19.675898790359497,335.0
19.685714960098267,326.0
19.695491790771484,337.0
19.7049458026886,310.0
19.71573495864868,334.0
19.725754976272583,332.0
19.735729932785034,353.0
19.7455050945282,374.0
19.75498914718628,339.0
19.765798807144165,358.0
19.77575397491455,345.0
19.785706043243408,370.0
19.79546594619751,375.0
19.804928064346313,389.0
19.815766096115112,387.0
19.825976133346558,380.0
19.835705041885376,382.0
19.845284938812256,378.0
19.854748964309692,361.0
19.865612030029297,365.0
19.875668048858643,345.0
19.885725021362305,325.0
19.89548110961914,308.0
19.90495991706848,310.0
19.915857791900635,291.0
19.925881147384644,299.0
19.93572688102722,286.0
19.94548988342285,268.0
19.95498299598694,263.0
19.96580410003662,289.0
19.976033926010132,284.0
19.98570489883423,268.0
19.995518922805786,263.0
20.00503182411194,303.0
20.015816926956177,369.0
20.02596616744995,360.0
20.03579092025757,305.0
20.045488834381104,325.0
20.05500292778015,349.0
20.065785884857178,359.0
20.075809001922607,350.0
20.08571696281433,352.0
20.095502853393555,380.0
20.104996919631958,397.0
20.11580991744995,372.0
20.12581777572632,370.0
20.135704040527344,386.0
20.145484924316406,348.0
20.154951810836792,326.0
20.165700912475586,354.0
20.175651788711548,321.0
20.185698986053467,338.0
20.195464849472046,337.0
20.204915046691895,309.0
20.215662717819214,341.0
20.22561001777649,324.0
20.235694885253906,318.0
20.24534773826599,319.0
20.254841089248657,342.0
20.265644073486328,321.0
20.275608777999878,307.0
20.285724878311157,295.0
20.295472860336304,313.0
20.304950952529907,299.0
20.315799951553345,307.0
20.325881004333496,286.0
20.335707902908325,285.0
20.345489978790283,284.0
20.354964017868042,280.0
20.36582612991333,308.0
20.37586498260498,310.0
20.385699033737183,298.0
20.39552092552185,300.0
20.40500497817993,338.0
20.41573405265808,344.0
20.425854921340942,335.0
20.4357168674469,349.0
20.445472955703735,338.0
20.454955101013184,295.0
20.46575379371643,346.0
20.475697994232178,370.0
20.485697031021118,318.0
20.495425939559937,295.0
20.504873037338257,314.0
20.515631914138794,302.0
20.525539875030518,303.0
20.535695791244507,289.0
20.54551386833191,296.0
20.554978132247925,302.0
20.56576681137085,307.0
20.575697898864746,293.0
20.585693836212158,293.0
20.595510005950928,313.0
20.604984998703003,292.0
20.615779876708984,246.0
20.62577486038208,234.0
20.63569402694702,240.0
20.645271062850952,273.0
20.654708862304688,288.0
20.665442943572998,239.0
20.675384044647217,244.0
20.685688972473145,319.0
20.695417881011963,248.0
20.704867124557495,273.0
20.715619802474976,295.0
20.725148916244507,302.0
20.735275983810425,342.0
20.74533700942993,362.0
20.754805088043213,407.0
20.76561999320984,410.0
20.77574610710144,406.0
20.78569197654724,409.0
20.79544973373413,428.0
20.804900884628296,456.0
20.815659999847412,445.0
20.825628995895386,433.0
20.83570694923401,424.0
20.8454430103302,381.0
20.854894876480103,426.0
20.86567974090576,434.0
20.875741958618164,419.0
20.885689735412598,395.0
20.895453929901123,397.0
20.904918909072876,379.0
20.91569209098816,319.0
20.9256649017334,293.0
20.93570303916931,339.0
20.94543695449829,347.0
20.954921007156372,331.0
20.965725898742676,334.0
20.97588610649109,295.0
20.9857017993927,271.0
20.99549698829651,296.0
21.004965782165527,340.0
21.015878915786743,366.0
21.026018142700195,351.0
21.03570795059204,361.0
21.04528307914734,382.0
21.05470585823059,377.0
21.065512895584106,358.0
21.075588941574097,362.0
21.085689067840576,340.0
21.095444917678833,328.0
21.104942798614502,317.0
21.115886926651,317.0
21.125987768173218,301.0
21.135703086853027,314.0
21.14549493789673,336.0
21.15497899055481,281.0
21.16585898399353,295.0
21.175966024398804,305.0
21.185707092285156,347.0
21.19549798965454,345.0
21.20497488975525,368.0
21.21576690673828,327.0
21.225974082946777,329.0
21.235686779022217,350.0
21.245336055755615,307.0
21.254806995391846,329.0
21.265578031539917,397.0
21.27554988861084,359.0
21.285682916641235,356.0
21.29541301727295,303.0
21.30487084388733,313.0
21.315675973892212,344.0
21.325618982315063,378.0
21.335696935653687,378.0
21.34549880027771,381.0
21.355005025863647,429.0
21.36583399772644,473.0
21.375908851623535,466.0
21.385689735412598,445.0
21.395501136779785,450.0
21.404995918273926,440.0
21.41583490371704,445.0
21.42609477043152,427.0
21.435194969177246,395.0
21.44529104232788,435.0
21.45481300354004,458.0
21.465698957443237,399.0
21.47581386566162,364.0
21.485684871673584,407.0
21.495490074157715,392.0
21.50499677658081,354.0
21.515805959701538,411.0
21.525722980499268,426.0
21.535704135894775,311.0
21.545452117919922,343.0
21.554921865463257,331.0
21.565689086914062,352.0
21.57569408416748,343.0
21.585701942443848,351.0
21.595398902893066,335.0
21.60486102104187,377.0
21.615625858306885,372.0
21.625569105148315,323.0
21.63567280769348,351.0
21.645413875579834,398.0
21.654876947402954,461.0
21.66575002670288,451.0
21.67581582069397,420.0
21.685702800750732,478.0
21.69546914100647,510.0
21.704953908920288,530.0
21.715744972229004,520.0
21.725998878479004,477.0
21.735682010650635,511.0
21.745479822158813,506.0
21.754966020584106,510.0
21.765763759613037,504.0
21.775782823562622,467.0
21.78568196296692,449.0
21.79548192024231,457.0
21.804949045181274,445.0
21.81577181816101,392.0
21.8258638381958,389.0
21.83567214012146,414.0
21.845279932022095,345.0
21.854762077331543,359.0
21.86552095413208,433.0
21.875430822372437,421.0
21.88567590713501,359.0
21.895408868789673,395.0
21.90486717224121,415.0
21.915595054626465,396.0
21.924998998641968,415.0
21.935674905776978,452.0
21.94541597366333,446.0
21.95486092567444,444.0
21.965608835220337,485.0
21.975549936294556,489.0
21.985668897628784,457.0
21.995434045791626,442.0
22.004880905151367,452.0
22.015566110610962,480.0
22.02569603919983,457.0
22.035687923431396,458.0
22.045418977737427,458.0
22.05488109588623,424.0
22.06565499305725,421.0
22.075695753097534,410.0
22.085674047470093,347.0
22.09540605545044,303.0
22.10487699508667,362.0
22.115753889083862,363.0
22.125831842422485,334.0
22.135674953460693,337.0
22.14547300338745,364.0
22.154946088790894,340.0
22.165739059448242,234.0
22.175771951675415,200.0
22.185676097869873,204.0
22.195491075515747,325.0
22.20496892929077,403.0
22.215824842453003,352.0
22.225877046585083,343.0
22.23567485809326,309.0
22.245274782180786,314.0
22.25473690032959,379.0
22.265470027923584,419.0
22.275611877441406,430.0
22.285689115524292,460.0
22.295461893081665,484.0
22.304942846298218,525.0
22.31578803062439,536.0
22.325798988342285,528.0
22.335664987564087,532.0
22.345458984375,522.0
22.35493493080139,508.0
22.365705966949463,512.0
22.37569308280945,469.0
22.38569188117981,483.0
22.395439863204956,476.0
22.40496301651001,473.0
22.415838956832886,526.0
22.42592692375183,499.0
22.43568992614746,454.0
22.445469856262207,427.0
22.454787015914917,466.0
22.465697050094604,473.0
22.475772857666016,457.0
22.485670804977417,474.0
22.495469093322754,469.0
22.504942178726196,453.0
22.5157208442688,472.0
22.525717973709106,496.0
22.535680055618286,461.0
22.5454740524292,449.0
22.55497097969055,450.0
22.565762042999268,433.0
22.575771808624268,413.0
22.58568286895752,444.0
22.59547996520996,453.0
22.60497212409973,436.0
22.61587691307068,420.0
22.625998735427856,410.0
22.635669946670532,407.0
22.645254850387573,433.0
22.654728889465332,476.0
22.665498971939087,454.0
22.675498962402344,423.0
22.685669898986816,455.0
22.695404052734375,471.0
22.704864978790283,471.0
22.715630769729614,473.0
22.725752115249634,497.0
22.735671043395996,498.0
22.745418071746826,442.0
22.7547869682312,462.0
22.765649795532227,518.0
22.77574896812439,459.0
22.785672903060913,416.0
22.79542303085327,448.0
22.804883003234863,467.0
22.815711975097656,492.0
22.825846910476685,509.0
22.835667848587036,473.0
22.845456838607788,476.0
22.854932069778442,467.0
22.865713834762573,472.0
22.875713109970093,476.0
22.88567590713501,473.0
22.895437002182007,468.0
22.90488910675049,480.0
22.915663957595825,462.0
22.925659894943237,423.0
22.93566584587097,420.0
22.945438861846924,389.0
22.954904079437256,440.0
22.96578574180603,468.0
22.975857973098755,421.0
22.985682010650635,388.0
22.99545907974243,389.0
23.004939079284668,389.0
23.015830039978027,409.0
23.02592897415161,396.0
23.035670042037964,359.0
23.045225858688354,382.0
23.054662942886353,397.0
23.06540012359619,407.0
23.07536005973816,386.0
23.085684061050415,401.0
23.09533190727234,401.0
23.104821920394897,422.0
23.11560606956482,404.0
23.12504506111145,400.0
23.135668992996216,418.0
23.145416021347046,414.0
23.154874801635742,425.0
23.16567873954773,441.0
23.175740003585815,396.0
23.185658931732178,393.0
23.195427894592285,399.0
23.20488405227661,423.0
23.215670108795166,438.0
23.225672006607056,440.0
23.235710859298706,445.0
23.245059728622437,427.0
23.255623817443848,435.0
23.265383005142212,468.0
23.275329113006592,471.0
23.28566884994507,440.0
23.295395851135254,430.0
23.3048677444458,450.0
23.31571102142334,446.0
23.32585382461548,454.0
23.335676908493042,447.0
23.345463037490845,420.0
23.354928970336914,441.0
23.365708112716675,435.0
23.37567901611328,415.0
23.385653018951416,432.0
23.395429849624634,448.0
23.404945850372314,445.0
23.41572594642639,462.0
23.42568302154541,446.0
23.435678005218506,448.0
23.445307970046997,458.0
23.45482587814331,458.0
23.46570897102356,458.0
23.475883960723877,481.0
23.485687971115112,457.0
23.495449781417847,438.0
23.504929065704346,405.0
23.515708923339844,442.0
23.525144815444946,465.0
23.535261869430542,456.0
23.545349836349487,454.0
23.554799795150757,458.0
23.565580129623413,433.0
23.57569193840027,450.0
23.585657119750977,464.0
23.595420837402344,462.0
23.60492706298828,493.0
23.615663766860962,471.0
23.62563395500183,441.0
23.635655879974365,439.0
23.645416975021362,435.0
23.654777765274048,422.0
23.66562581062317,420.0
23.6756649017334,419.0
23.685662031173706,410.0
23.695441961288452,457.0
23.70492386817932,446.0
23.71578812599182,412.0
23.7259418964386,407.0
23.735652923583984,435.0
23.745463132858276,443.0
23.754945993423462,482.0
23.765773057937622,466.0
23.775803804397583,482.0
23.785659790039062,477.0
23.79546594619751,492.0
23.804952144622803,487.0
23.815853118896484,452.0
23.825998067855835,425.0
23.835659980773926,438.0
23.84525990486145,450.0
23.854702949523926,437.0
23.86555004119873,425.0
23.875717878341675,433.0
23.88564896583557,444.0
23.89547085762024,450.0
23.904941082000732,449.0
23.91572880744934,424.0
23.92568302154541,448.0
23.935654878616333,456.0
23.94537591934204,461.0
23.954790830612183,462.0
23.96553897857666,453.0
23.975466012954712,467.0
23.98564600944519,481.0
23.995418787002563,491.0
24.004868745803833,461.0
24.015602827072144,429.0
24.025638818740845,435.0
24.0356547832489,476.0
24.045390844345093,464.0
24.05488681793213,424.0
24.065675020217896,451.0
24.075902938842773,475.0
24.08565092086792,455.0
24.095479011535645,432.0
24.104965925216675,437.0
24.115925073623657,425.0
24.125934839248657,414.0
24.13565683364868,424.0
24.14544987678528,473.0
24.15493607521057,462.0
24.16578483581543,461.0
24.17574405670166,421.0
24.185659885406494,411.0
24.195451974868774,444.0
24.20494294166565,472.0
24.21583104133606,478.0
24.22583293914795,486.0
24.23565173149109,481.0
24.245280981063843,489.0
24.254733085632324,496.0
24.265460968017578,480.0
24.275506019592285,479.0
24.285651922225952,471.0
24.29541778564453,474.0
24.304866075515747,478.0
24.315632820129395,450.0
24.32511591911316,470.0
24.335214138031006,450.0
24.345289945602417,458.0
24.35472297668457,476.0
24.365577936172485,486.0
24.37572693824768,480.0
24.385658979415894,475.0
24.395447969436646,471.0
24.404921770095825,469.0
24.41571879386902,489.0
24.425652980804443,512.0
24.435647010803223,508.0
24.44545292854309,508.0
24.454934120178223,507.0
24.46570587158203,517.0
24.475652933120728,519.0
24.485646724700928,498.0
24.49534273147583,489.0
24.50483798980713,489.0
24.515692949295044,477.0
24.525654077529907,510.0
24.535662174224854,523.0
24.545392990112305,512.0
24.554869890213013,513.0
24.5656578540802,517.0
24.575777053833008,526.0
24.585657835006714,550.0
24.59550905227661,535.0
24.60501790046692,543.0
24.615839958190918,545.0
24.62581491470337,551.0
24.63564395904541,539.0
24.645312070846558,523.0
24.65480875968933,491.0
24.665628910064697,509.0
24.67563009262085,506.0
24.685643911361694,511.0
24.69538688659668,520.0
24.70485496520996,494.0
24.715632915496826,471.0
24.725155115127563,472.0
24.735219955444336,503.0
24.745267868041992,498.0
24.7546968460083,481.0
24.76540493965149,486.0
24.775341987609863,486.0
24.785648822784424,517.0
24.795457124710083,516.0
24.80499005317688,518.0
24.81564688682556,519.0
24.825643062591553,530.0
24.835669994354248,507.0
24.84536099433899,519.0
24.854798078536987,540.0
24.865553855895996,549.0
24.875513792037964,551.0
24.885647773742676,551.0
24.895378828048706,538.0
24.904831886291504,543.0
24.91569495201111,545.0
24.925724983215332,559.0
24.935636043548584,563.0
24.945401906967163,565.0
24.95487689971924,563.0
24.965646743774414,535.0
24.975684881210327,550.0
24.985630989074707,547.0
24.99540686607361,550.0
25.004880905151367,547.0
25.015641927719116,557.0
25.02559208869934,536.0
25.035631895065308,554.0
25.045256853103638,513.0
25.054754972457886,505.0
25.0654878616333,527.0
25.075504779815674,513.0
25.085635900497437,513.0
25.095391988754272,518.0
25.104928970336914,524.0
25.115875720977783,496.0
25.12592101097107,474.0
25.135648012161255,514.0
25.1454439163208,535.0
25.154780864715576,537.0
25.165548086166382,512.0
25.17556095123291,511.0
25.18564796447754,525.0
25.1954128742218,517.0
25.20487403869629,561.0
25.215632915496826,554.0
25.225722789764404,566.0
25.235635995864868,577.0
25.245434761047363,574.0
25.254901885986328,571.0
25.265702962875366,575.0
25.275694847106934,593.0
25.285645008087158,587.0
25.295412063598633,586.0
25.30489492416382,578.0
25.315722942352295,577.0
25.32575488090515,573.0
25.33563995361328,563.0
25.3454430103302,569.0
25.35492777824402,584.0
25.365694999694824,592.0
25.37563180923462,557.0
25.38563585281372,541.0
25.395405054092407,532.0
25.404855966567993,567.0
25.415700912475586,577.0
25.425699710845947,565.0
25.435639142990112,569.0
25.44525384902954,562.0
25.45468282699585,555.0
25.4654221534729,556.0
25.475355863571167,564.0
25.485638856887817,541.0
25.495362043380737,544.0
25.504817962646484,539.0
25.51570415496826,539.0
25.52575993537903,546.0
25.53563690185547,559.0
25.545382976531982,547.0
25.554842948913574,526.0
25.565626859664917,529.0
25.575593948364258,539.0
25.58565616607666,551.0
25.595451831817627,537.0
25.60494375228882,539.0
25.615819931030273,532.0
25.625866889953613,524.0
25.635640144348145,501.0
25.645383834838867,505.0
25.654905796051025,504.0
25.66576385498047,499.0
25.67586588859558,488.0
25.68564510345459,472.0
25.69543194770813,484.0
25.704889059066772,476.0
25.715715169906616,482.0
25.72583794593811,482.0
25.735630750656128,473.0
25.74541997909546,473.0
25.754882097244263,469.0
25.76567506790161,465.0
25.77562689781189,475.0
25.78562879562378,471.0
25.79540777206421,461.0
25.80489182472229,473.0
25.815672159194946,452.0
25.825624704360962,448.0
25.835628032684326,446.0
25.845269918441772,459.0
25.854740858078003,443.0
25.86556077003479,443.0
25.875494956970215,458.0
25.88564682006836,450.0
25.89539098739624,448.0
25.904888153076172,453.0
25.91566491127014,447.0
25.925028800964355,452.0
25.935626983642578,455.0
25.945416927337646,439.0
25.954896926879883,424.0
25.965656042099,427.0
25.975608110427856,408.0
25.985628843307495,412.0
25.995437145233154,403.0
26.004933834075928,382.0
26.01572895050049,383.0
26.025665044784546,379.0
26.03563690185547,372.0
26.04535984992981,361.0
26.054778814315796,346.0
26.065550804138184,348.0
26.07545280456543,323.0
26.08563995361328,339.0
26.09537696838379,333.0
26.104854106903076,326.0
26.115805864334106,309.0
26.125861883163452,300.0
26.135640144348145,297.0
26.145416021347046,291.0
26.154890060424805,279.0
26.165704011917114,256.0
26.17575693130493,246.0
26.185629844665527,243.0
26.195433855056763,235.0
26.204905033111572,234.0
26.215837001800537,222.0
26.225955724716187,209.0
26.235625982284546,202.0
26.245266914367676,199.0
26.25475788116455,183.0
26.26553177833557,209.0
26.27549695968628,212.0
26.285624027252197,192.0
26.295355796813965,186.0
26.304815769195557,199.0
26.31558394432068,190.0
26.32510209083557,171.0
26.33518099784851,181.0
26.345245838165283,193.0
26.35468292236328,209.0
26.365458965301514,204.0
26.37569785118103,211.0
26.3856258392334,207.0
26.39540195465088,220.0
26.404857873916626,231.0
26.415610790252686,242.0
26.425689935684204,254.0
26.435619115829468,251.0
26.445379734039307,250.0
26.454915046691895,262.0
26.465733766555786,275.0
26.475687980651855,262.0
26.485630989074707,260.0
26.49516487121582,266.0
26.50464677810669,266.0
26.51536202430725,264.0
26.525298833847046,272.0
26.535635948181152,283.0
26.545387029647827,279.0
26.554842948913574,272.0
26.565589904785156,282.0
26.57534909248352,300.0
26.58563208580017,312.0
26.595330953598022,303.0
26.604816913604736,313.0
26.6155788898468,313.0
26.62552285194397,324.0
26.635628938674927,341.0
26.645312070846558,356.0
26.654780864715576,321.0
26.665565013885498,315.0
26.675527811050415,322.0
26.6856210231781,355.0
26.69541597366333,323.0
26.704893827438354,343.0
26.715667963027954,359.0
26.725029945373535,358.0
26.735636949539185,372.0
26.745346069335938,360.0
26.754805088043213,362.0
26.765610933303833,342.0
26.7757408618927,370.0
26.78561782836914,370.0
26.7953839302063,368.0
26.8048357963562,377.0
26.815659999847412,351.0
26.8256618976593,366.0
26.83560800552368,376.0
26.84536099433899,383.0
26.854881048202515,380.0
26.865751028060913,370.0
26.875831127166748,365.0
26.88561987876892,369.0
26.895402908325195,370.0
26.904876947402954,362.0
26.915735960006714,373.0
26.925819873809814,339.0
26.935626983642578,335.0
26.945409059524536,356.0
26.954866886138916,350.0
26.96568989753723,350.0
26.975838899612427,350.0
26.98561406135559,343.0
26.995437145233154,323.0
27.0049090385437,303.0
27.015803813934326,316.0
27.025866985321045,321.0
27.035619735717773,327.0
27.045258045196533,310.0
27.054732084274292,303.0
27.065593957901,306.0
27.07569193840027,313.0
27.085615873336792,309.0
27.095345973968506,314.0
27.104809045791626,297.0
27.115607976913452,305.0
27.1254940032959,306.0
27.1356098651886,295.0
27.14539384841919,284.0
27.15484380722046,270.0
27.165709018707275,241.0
27.17587685585022,234.0
27.185614824295044,201.0
27.195419788360596,202.0
27.204888105392456,191.0
27.215686798095703,172.0
27.225904941558838,140.0
27.235612869262695,129.0
27.24540901184082,110.0
27.254771947860718,65.0
27.265501976013184,55.0
27.275448083877563,46.0
27.28561305999756,38.0
27.295374870300293,39.0
27.30482792854309,38.0
27.315736055374146,38.0
27.325774908065796,32.0
27.335609912872314,36.0
27.34538698196411,31.0
27.35486888885498,32.0
27.36567497253418,33.0
27.375746965408325,35.0
27.385616779327393,29.0
27.39540410041809,32.0
27.404881954193115,31.0
27.415776014328003,38.0
27.42586898803711,30.0
27.43562388420105,35.0
27.44516611099243,30.0
27.45460796356201,31.0
27.46532392501831,34.0
27.47523593902588,28.0
27.485124826431274,24.0
27.49521493911743,28.0
27.504714965820312,28.0
27.515042066574097,32.0
27.52608370780945,33.0
27.535594940185547,31.0
27.545366048812866,32.0
27.554755926132202,32.0
27.56550407409668,30.0
27.575536966323853,32.0
27.58562397956848,29.0
27.595384120941162,31.0
27.604849815368652,31.0
27.61564803123474,30.0
27.6257107257843,24.0
27.635613918304443,29.0
27.645271062850952,35.0
27.654769897460938,31.0
27.66553497314453,32.0
27.67539095878601,32.0
27.6855947971344,31.0
27.69533395767212,33.0
27.704835891723633,32.0
27.715790033340454,33.0
27.726356029510498,31.0
27.735004901885986,31.0
27.74542498588562,27.0
27.754899978637695,34.0
27.765679836273193,30.0
27.7758469581604,31.0
27.785614728927612,28.0
27.795424938201904,24.0
27.804877042770386,30.0
27.81564688682556,30.0
27.825609922409058,27.0
27.835613012313843,33.0
27.845223903656006,30.0
27.854658126831055,29.0
27.865463972091675,33.0
27.87546396255493,34.0
27.885602951049805,31.0
27.894949913024902,29.0
27.905476808547974,32.0
27.91522479057312,31.0
27.925083875656128,33.0
27.93513798713684,32.0
27.945131063461304,31.0
27.954573154449463,34.0
27.965408086776733,32.0
27.975546836853027,29.0
27.985618829727173,31.0
27.995331048965454,28.0
28.00477170944214,31.0
28.01560401916504,34.0
28.025662899017334,30.0
28.035593032836914,31.0
28.045318841934204,32.0
28.054763078689575,30.0
28.06556487083435,36.0
28.075613021850586,30.0
28.08559799194336,30.0
28.095342874526978,28.0
28.104816913604736,32.0
28.11556601524353,31.0
28.12545680999756,23.0
28.135596990585327,30.0
28.145319938659668,32.0
28.154762983322144,31.0
28.16547203063965,32.0
28.175304889678955,31.0
28.185590028762817,29.0
28.19534993171692,22.0
28.204816818237305,33.0
28.215574979782104,31.0
28.225579023361206,29.0
28.235599756240845,29.0
28.245102882385254,30.0
28.25564694404602,30.0
28.2654128074646,22.0
28.27552890777588,30.0
28.285594940185547,32.0
28.29531502723694,24.0
28.304751873016357,23.0
28.315578937530518,31.0
28.325562953948975,31.0
28.335656881332397,32.0
28.345314025878906,30.0
28.354811906814575,30.0
28.36558198928833,31.0
28.375627994537354,18.0
28.3855938911438,35.0
28.395326852798462,29.0
28.404773950576782,23.0
28.415512800216675,29.0
28.42553973197937,30.0
28.435595989227295,24.0
28.445313930511475,30.0
28.45476198196411,31.0
28.46549892425537,31.0
28.47561812400818,29.0
28.485592126846313,32.0
28.495309114456177,28.0
28.50477695465088,30.0
28.515517950057983,31.0
28.525402784347534,28.0
28.535598754882812,29.0
28.545284748077393,32.0
28.554749011993408,27.0
28.565533876419067,32.0
28.57556390762329,31.0
28.58558702468872,32.0
28.595340967178345,30.0
28.604788064956665,29.0
28.615571975708008,23.0
28.625748872756958,31.0
28.635583877563477,31.0
28.645251035690308,29.0
28.654721975326538,34.0
28.665448904037476,30.0
28.67577290534973,26.0
28.685600996017456,31.0
28.695351123809814,31.0
28.704803943634033,36.0
28.715592861175537,24.0
28.725635766983032,31.0
28.735590934753418,36.0
28.745283126831055,33.0
28.754754066467285,35.0
28.765522956848145,30.0
28.775448083877563,33.0
28.785594940185547,32.0
28.795499086380005,32.0
28.805054903030396,31.0
28.814916849136353,32.0
28.826014041900635,34.0
28.8355929851532,31.0
28.845227003097534,32.0
28.854736804962158,33.0
28.86553692817688,34.0
28.87553596496582,34.0
28.885581970214844,28.0
28.895280838012695,31.0
28.904736042022705,31.0
28.915608882904053,35.0
28.926146984100342,33.0
28.93497896194458,34.0
28.9455349445343,34.0
28.95502996444702,36.0
28.96583390235901,31.0
28.97578501701355,33.0
28.98557996749878,35.0
28.99541687965393,33.0
29.004878044128418,34.0
29.015618085861206,32.0
29.025536060333252,39.0
29.03558874130249,34.0
29.0451877117157,35.0
29.054638862609863,31.0
29.065365076065063,34.0
29.075453996658325,37.0
29.085601091384888,28.0
29.09531283378601,38.0
29.1047580242157,40.0
29.11553192138672,40.0
29.125611066818237,44.0
29.135579824447632,67.0
29.145307779312134,102.0
29.1547908782959,137.0
29.165646076202393,145.0
29.175580978393555,187.0
29.1855890750885,207.0
29.195318937301636,242.0
29.204818964004517,259.0
29.215577840805054,268.0
29.225571155548096,287.0
29.235597133636475,335.0
29.245315074920654,339.0
29.254838943481445,328.0
29.26560688018799,323.0
29.275550842285156,343.0
29.285588026046753,349.0
29.295350074768066,371.0
29.304818868637085,384.0
29.315617084503174,355.0
29.325844049453735,372.0
29.335585117340088,373.0
29.345400094985962,382.0
29.35487198829651,393.0
29.36566400527954,399.0
29.375373125076294,404.0
29.385597944259644,403.0
29.39535093307495,422.0
29.404809951782227,435.0
29.41566491127014,446.0
29.425797939300537,442.0
29.435822010040283,464.0
29.44521975517273,477.0
29.454664945602417,465.0
29.465461015701294,495.0
29.475435972213745,499.0
29.48559594154358,469.0
29.495369911193848,488.0
29.504835844039917,482.0
29.51559591293335,476.0
29.52554702758789,451.0
29.535590887069702,483.0
29.54538083076477,484.0
29.554872035980225,472.0
29.565629959106445,492.0
29.575568914413452,490.0
29.585582733154297,489.0
29.59535789489746,489.0
29.60481095314026,500.0
29.615572929382324,491.0
29.6255099773407,495.0
29.635581016540527,503.0
29.645347833633423,492.0
29.654766082763672,493.0
29.665601015090942,486.0
29.675737857818604,472.0
29.685590982437134,474.0
29.69536304473877,463.0
29.704818964004517,446.0
29.715604066848755,440.0
29.725717067718506,439.0
29.73559808731079,454.0
29.74537491798401,439.0
29.7548348903656,406.0
29.76573395729065,425.0
29.77576184272766,396.0
29.78561782836914,423.0
29.795406818389893,401.0
29.804890871047974,438.0
29.815659046173096,419.0
29.825624704360962,392.0
29.835580825805664,380.0
29.845294713974,397.0
29.854805946350098,402.0
29.86556911468506,400.0
29.87552785873413,404.0
29.88557481765747,392.0
29.89535903930664,395.0
29.90485978126526,397.0
29.915613889694214,398.0
29.925582885742188,389.0
29.93558979034424,348.0
29.94534993171692,351.0
29.954848051071167,345.0
29.965314149856567,381.0
29.975157976150513,365.0
29.985110998153687,342.0
29.99520492553711,336.0
30.00467586517334,327.0
30.015427827835083,319.0
30.025388956069946,311.0
30.035578966140747,299.0
30.045337915420532,297.0
30.05488109588623,284.0
30.06566596031189,285.0
30.075623989105225,270.0
30.085574865341187,261.0
30.095426082611084,245.0
30.10492706298828,226.0
30.11574697494507,209.0
30.125703811645508,193.0
30.135578870773315,189.0
30.14537501335144,167.0
30.154869079589844,141.0
30.165646076202393,119.0
30.175599813461304,106.0
30.185571908950806,82.0
30.195337057113647,72.0
30.204802989959717,52.0
30.215568780899048,37.0
30.225573778152466,39.0
30.235563039779663,35.0
30.24522590637207,39.0
30.254659175872803,40.0
30.265419006347656,37.0
30.27544093132019,36.0
30.285561084747314,38.0
30.295406818389893,36.0
30.304872035980225,36.0
30.315674781799316,32.0
30.32574200630188,31.0
30.335579872131348,26.0
30.345358848571777,38.0
30.354843854904175,36.0
30.36571192741394,35.0
30.375787019729614,34.0
30.38558793067932,36.0
30.395370960235596,34.0
30.404839992523193,34.0
30.415674924850464,36.0
30.42584991455078,35.0
30.43557596206665,35.0
30.44535994529724,37.0
30.454839944839478,33.0
30.465617895126343,34.0
30.4755699634552,37.0
30.48560094833374,27.0
30.495413064956665,37.0
30.504985809326172,34.0
30.51581907272339,37.0
30.525755882263184,37.0
30.535598039627075,38.0
30.545384883880615,35.0
30.55488681793213,34.0
30.56570291519165,35.0
30.575641870498657,34.0
30.58556079864502,29.0
30.595263957977295,34.0
30.60469889640808,43.0
30.61547088623047,36.0
30.62543272972107,36.0
30.635592937469482,34.0
30.645204067230225,39.0
30.65463876724243,39.0
30.665385007858276,35.0
30.675391912460327,40.0
30.68558382987976,42.0
30.69532084465027,45.0
30.70481586456299,54.0
30.715699911117554,71.0
30.72573184967041,85.0
30.735576152801514,115.0
30.74530792236328,140.0
30.754791975021362,151.0
30.76558208465576,178.0
30.775758743286133,198.0
30.785567045211792,222.0
30.79531192779541,240.0
30.804800033569336,263.0
30.815542936325073,272.0
30.82560896873474,296.0
30.835583925247192,298.0
30.84529399871826,312.0
30.85474681854248,321.0
30.86549997329712,343.0
30.875416040420532,359.0
30.885569095611572,351.0
30.89533281326294,368.0
30.904799938201904,376.0
30.915727853775024,382.0
30.92569899559021,390.0
30.935588836669922,391.0
30.945313930511475,413.0
30.954775094985962,398.0
30.965506076812744,410.0
30.97542095184326,408.0
30.985564947128296,408.0
30.995328903198242,402.0
31.004806995391846,401.0
31.015640020370483,399.0
31.02556586265564,401.0
31.035566091537476,380.0
31.04523801803589,390.0
31.054709911346436,387.0
31.0654718875885,396.0
31.075398921966553,391.0
31.0855610370636,384.0
31.095311880111694,388.0
31.10477113723755,381.0
31.11552906036377,369.0
31.125017881393433,363.0
31.13556408882141,360.0
31.14525008201599,346.0
31.154708862304688,336.0
31.16551399230957,328.0
31.175557851791382,324.0
31.185590028762817,316.0
31.19532799720764,304.0
31.204787015914917,296.0
31.215606927871704,293.0
31.225677967071533,291.0
31.235563039779663,296.0
31.245277881622314,280.0
31.254743099212646,288.0
31.26551389694214,298.0
31.27550196647644,274.0
31.285563945770264,271.0
31.295280933380127,276.0
31.304739713668823,291.0
31.3155038356781,279.0
31.325532913208008,267.0
31.335576057434082,272.0
31.345230102539062,259.0
31.354715824127197,253.0
31.365529775619507,258.0
31.37564492225647,250.0
31.38559103012085,250.0
31.395298957824707,229.0
31.404753923416138,253.0
31.41564178466797,250.0
31.42571997642517,226.0
31.435577869415283,251.0
31.445218086242676,248.0
31.454658031463623,254.0
31.465378046035767,259.0
31.475297927856445,250.0
31.485561847686768,257.0
31.49527883529663,263.0
31.5047550201416,262.0
31.51558494567871,262.0
31.526047945022583,275.0
31.534750938415527,253.0
31.545432806015015,259.0
31.554966926574707,292.0
31.565860748291016,304.0
31.57590103149414,288.0
31.585571765899658,320.0
31.59529972076416,304.0
31.60478901863098,328.0
31.615679025650024,318.0
31.625733852386475,346.0
31.635589838027954,357.0
31.645282983779907,354.0
31.654797077178955,364.0
31.66562581062317,362.0
31.67562699317932,368.0
31.68555498123169,371.0
31.695266008377075,349.0
31.704718112945557,379.0
31.715511083602905,384.0
31.72563099861145,392.0
31.735578775405884,408.0
31.745269060134888,412.0
31.754729986190796,417.0
31.76545786857605,409.0
31.77547788619995,424.0
31.785574913024902,435.0
31.79529905319214,443.0
31.804780960083008,456.0
31.815645933151245,445.0
31.825724840164185,455.0
31.835547924041748,461.0
31.845223903656006,460.0
31.854663848876953,468.0
31.86541485786438,472.0
31.875552892684937,475.0
31.885567903518677,450.0
31.895258903503418,485.0
31.904705047607422,492.0
31.91547703742981,494.0
31.92497205734253,494.0
31.93556499481201,504.0
31.94530415534973,519.0
31.95480704307556,510.0
31.965587854385376,517.0
31.975621938705444,528.0
31.985554933547974,527.0
31.995344877243042,532.0
32.00481581687927,551.0
32.01557779312134,552.0
32.02548003196716,547.0
32.035547971725464,564.0
32.045305013656616,574.0
32.05474591255188,585.0
32.06556177139282,598.0
32.07556986808777,601.0
32.085546016693115,610.0
32.09529399871826,616.0
32.10478115081787,620.0
32.11556601524353,599.0
32.12557291984558,622.0
32.13556694984436,612.0
32.14525580406189,633.0
32.15470099449158,626.0
32.16544795036316,617.0
32.17541980743408,633.0
32.185569047927856,632.0
32.19528388977051,627.0
32.20473289489746,647.0
32.21550107002258,616.0
32.22540903091431,629.0
32.23555588722229,636.0
32.24519085884094,632.0
32.25463080406189,640.0
32.26543998718262,632.0
32.27554988861084,622.0
32.28559899330139,614.0
32.29524493217468,609.0
32.30473279953003,613.0
32.31557893753052,604.0
32.32560992240906,575.0
32.33556509017944,561.0
32.34526586532593,553.0
32.354713916778564,544.0
32.365432024002075,537.0
32.37538695335388,518.0
32.38555073738098,518.0
32.39530086517334,500.0
32.40477013587952,496.0
32.41553092002869,478.0
32.42545485496521,454.0
32.435555934906006,434.0
32.44528317451477,411.0
32.45481491088867,389.0
32.46565794944763,371.0
32.47578287124634,352.0
32.48554801940918,315.0
32.49527096748352,294.0
32.50473594665527,234.0
32.51546502113342,231.0
32.52535605430603,202.0
32.53555107116699,179.0
32.545259952545166,156.0
32.554728984832764,118.0
32.565463066101074,124.0
32.57536792755127,124.0
32.58554291725159,119.0
32.595263957977295,120.0
32.60473608970642,101.0
32.61561703681946,84.0
32.62576985359192,83.0
32.63553476333618,94.0
32.64520597457886,88.0
32.654634952545166,80.0
32.66543102264404,76.0
32.67545986175537,69.0
32.68555688858032,45.0
32.6952428817749,59.0
32.70468187332153,62.0
32.715407848358154,57.0
32.72499203681946,51.0
32.735548973083496,54.0
32.745219707489014,51.0
32.7546648979187,55.0
32.765458822250366,50.0
32.77555990219116,48.0
32.78553915023804,45.0
32.79528284072876,39.0
32.80472993850708,38.0
32.8155038356781,43.0
32.8255398273468,38.0
32.835545778274536,37.0
32.845130920410156,37.0
32.85456299781799,39.0
32.865304708480835,30.0
32.8753399848938,36.0
32.88555288314819,37.0
32.89521789550781,39.0
32.90467095375061,37.0
32.91539406776428,41.0
32.925379037857056,39.0
32.9355309009552,42.0
32.945252895355225,44.0
32.95469284057617,44.0
32.965038776397705,54.0
32.97565698623657,63.0
32.98554182052612,58.0
32.99528193473816,61.0
33.00475001335144,54.0
33.01556205749512,48.0
33.02545881271362,42.0
33.035542011260986,41.0
33.045175075531006,38.0
33.0546817779541,43.0
33.06540894508362,37.0
33.07535481452942,40.0
33.0855438709259,36.0
33.095235109329224,35.0
33.10468411445618,34.0
33.11540412902832,35.0
33.12499499320984,27.0
33.13553786277771,24.0
33.14522194862366,33.0
33.154701948165894,36.0
33.16547894477844,33.0
33.175456047058105,32.0
33.18554997444153,35.0
33.19523000717163,29.0
33.20465397834778,34.0
33.215407848358154,35.0
33.22531509399414,26.0
33.235543966293335,32.0
33.24524807929993,33.0
33.25471210479736,33.0
33.265450954437256,32.0
33.27534103393555,29.0
33.28552985191345,33.0
33.295206785202026,33.0
33.30463695526123,31.0
33.31534385681152,34.0
33.32530689239502,31.0
33.3355450630188,30.0
33.345272064208984,25.0
33.35476994514465,30.0
33.36563515663147,31.0
33.37571096420288,27.0
33.38557481765747,28.0
33.39523887634277,31.0
33.40476393699646,31.0
33.415520906448364,29.0
33.42550873756409,31.0
33.4355309009552,31.0
33.4451949596405,26.0
33.45464301109314,23.0
33.46542477607727,24.0
33.47551488876343,34.0
33.4855318069458,29.0
33.49528384208679,29.0
33.50473594665527,32.0
33.51552987098694,28.0
33.52505302429199,32.0
33.53515386581421,35.0
33.54515981674194,30.0
33.55458402633667,31.0
33.56528306007385,23.0
33.57517385482788,33.0
33.58505177497864,30.0
33.595447063446045,31.0
33.60496997833252,31.0
33.61575889587402,29.0
33.625852823257446,32.0
33.63553309440613,32.0
33.64529800415039,31.0
33.654804944992065,29.0
33.66559100151062,33.0
33.67558979988098,33.0
33.6855309009552,34.0
33.695252895355225,33.0
33.70472979545593,29.0
33.715516805648804,30.0
33.72560381889343,29.0
33.735522985458374,36.0
33.74524998664856,31.0
33.754688024520874,33.0
33.765445947647095,30.0
33.77544403076172,30.0
33.785555839538574,30.0
33.79527497291565,35.0
33.8047149181366,33.0
33.81557297706604,29.0
33.825713872909546,31.0
33.835541009902954,34.0
33.8451828956604,29.0
33.8546199798584,36.0
33.86540174484253,34.0
33.8754780292511,31.0
33.88553977012634,33.0
33.89529991149902,35.0
33.90474486351013,28.0
33.91548275947571,32.0
33.92489194869995,26.0
33.93552112579346,34.0
33.94520974159241,26.0
33.95463705062866,33.0
33.96534776687622,33.0
33.975268840789795,31.0
33.98553395271301,24.0
33.995278120040894,35.0
34.004724979400635,34.0
34.01546597480774,35.0
34.025474071502686,36.0
34.03552484512329,35.0
34.045268058776855,37.0
34.054787158966064,40.0
34.06558799743652,38.0
34.07552099227905,35.0
34.08555793762207,32.0
34.095332860946655,33.0
34.10480308532715,35.0
34.115562915802,33.0
34.12557888031006,36.0
34.135538816452026,35.0
34.14527988433838,36.0
34.15479397773743,29.0
34.16559290885925,34.0
34.17564582824707,38.0
34.185542821884155,34.0
34.19528388977051,37.0
34.20473384857178,39.0
34.215505838394165,39.0
34.22568702697754,39.0
34.23552584648132,42.0
34.24519181251526,44.0
34.25462293624878,42.0
34.2653489112854,43.0
34.27553987503052,47.0
34.28554606437683,47.0
34.29528594017029,54.0
34.30476903915405,69.0
34.315573930740356,58.0
34.32566285133362,65.0
34.33554697036743,73.0
34.345272064208984,71.0
34.354726791381836,80.0
34.36547899246216,88.0
34.375558853149414,107.0
34.38552975654602,98.0
34.39528799057007,119.0
34.40473914146423,137.0
34.4155158996582,150.0
34.425604820251465,156.0
34.43553686141968,170.0
34.445271015167236,168.0
34.454728841781616,180.0
34.465513944625854,202.0
34.47552299499512,207.0
34.48552989959717,196.0
34.49525189399719,202.0
34.50471806526184,205.0
34.515511989593506,216.0
34.52546572685242,219.0
34.53551888465881,227.0
34.5452721118927,215.0
34.554728984832764,240.0
34.565505027770996,267.0
34.57554292678833,274.0
34.585540771484375,281.0
34.595277070999146,285.0
34.604729890823364,305.0
34.61550498008728,304.0
34.62542796134949,328.0
34.63552904129028,344.0
34.64514899253845,346.0
34.654592990875244,328.0
34.66535305976868,355.0
34.67525506019592,363.0
34.68553590774536,374.0
34.69522309303284,385.0
34.704663038253784,409.0
34.7154860496521,415.0
34.72551989555359,419.0
34.73557090759277,446.0
34.7452609539032,464.0
34.75470590591431,475.0
34.76546311378479,488.0
34.77538204193115,505.0
34.78551506996155,513.0
34.79525184631348,511.0
34.804754972457886,524.0
34.815515995025635,535.0
34.825567960739136,524.0
34.83557987213135,552.0
34.845221757888794,563.0
34.85480976104736,571.0
34.86571907997131,581.0
34.87569785118103,580.0
34.88552498817444,583.0
34.895267724990845,599.0
34.90474486351013,620.0
34.91553997993469,618.0
34.925575971603394,633.0
34.93552494049072,603.0
34.9453239440918,631.0
34.95479202270508,629.0
34.96569490432739,646.0
34.975706815719604,654.0
34.98553395271301,629.0
34.9952929019928,628.0
35.00475001335144,627.0
35.01559495925903,627.0
35.02566409111023,625.0
35.03552484512329,625.0
35.04521608352661,620.0
35.05469107627869,613.0
35.065582036972046,627.0
35.07559394836426,624.0
35.085521936416626,623.0
35.09535002708435,618.0
35.10486698150635,620.0
35.115691900253296,609.0
35.125601053237915,618.0
35.13555693626404,624.0
35.1452898979187,624.0
35.15480399131775,606.0
35.16561007499695,607.0
35.175585985183716,603.0
35.18553805351257,605.0
35.19531488418579,584.0
35.20479893684387,610.0
35.21561288833618,619.0
35.225791931152344,622.0
35.23552107810974,625.0
35.245309829711914,638.0
35.25486493110657,641.0
35.26576900482178,649.0
35.27579092979431,660.0
35.285523891448975,665.0
35.295308113098145,674.0
35.30478096008301,690.0
35.315664768218994,690.0
35.32576298713684,680.0
35.335530042648315,674.0
35.34531092643738,679.0
35.3547899723053,685.0
35.36558794975281,699.0
35.3756308555603,689.0
35.38550877571106,710.0
35.39515805244446,716.0
35.404616832733154,721.0
35.41545796394348,729.0
35.42553496360779,721.0
35.43552589416504,747.0
35.44521689414978,746.0
35.45467495918274,755.0
35.46547508239746,768.0
35.475438833236694,767.0
35.485530853271484,767.0
35.49492001533508,741.0
35.50547194480896,760.0
35.51522994041443,759.0
35.525054931640625,774.0
35.53512191772461,765.0
35.545202016830444,759.0
35.55464816093445,738.0
35.56550717353821,774.0
35.57567310333252,773.0
35.585529088974,774.0
35.595319986343384,769.0
35.60479784011841,773.0
35.61552309989929,775.0
35.6256959438324,763.0
35.635517835617065,775.0
35.64529204368591,759.0
35.654727935791016,752.0
35.66564393043518,751.0
35.675731897354126,749.0
35.685611963272095,739.0
35.6953227519989,739.0
35.70482897758484,735.0
35.71570301055908,735.0
35.72582197189331,730.0
35.73552894592285,716.0
35.745311975479126,739.0
35.75479698181152,733.0
35.76562309265137,739.0
35.775699853897095,738.0
35.78551983833313,715.0
35.79532194137573,745.0
35.80480480194092,754.0
35.815621852874756,737.0
35.825660943984985,731.0
35.835530042648315,730.0
35.84519982337952,737.0
35.854660749435425,735.0
35.865463972091675,723.0
35.87546896934509,711.0
35.8855197429657,720.0
35.89527201652527,741.0
35.904743909835815,739.0
35.915616035461426,738.0
35.925750970840454,719.0
35.93553400039673,742.0
35.945313930511475,734.0
35.95469808578491,733.0
35.96556901931763,735.0
35.97565007209778,733.0
35.9855260848999,717.0
35.99531388282776,688.0
36.004782915115356,705.0
36.01556992530823,705.0
36.025513887405396,702.0
36.035513162612915,692.0
36.045294761657715,688.0
36.0548529624939,675.0
36.065654039382935,682.0
36.07559084892273,684.0
36.08553981781006,681.0
36.09536576271057,670.0
36.104811906814575,656.0
36.11569595336914,649.0
36.125771045684814,648.0
36.1355299949646,652.0
36.145267963409424,635.0
36.15474987030029,618.0
36.16551184654236,616.0
36.17543697357178,604.0
36.18551182746887,592.0
36.19523000717163,590.0
36.20472502708435,589.0
36.21554207801819,579.0
36.22555494308472,571.0
36.23550581932068,586.0
36.24518084526062,580.0
36.254618883132935,574.0
36.265373945236206,571.0
36.27541399002075,583.0
36.28551888465881,569.0
36.29520797729492,577.0
36.304651975631714,585.0
36.31543302536011,573.0
36.32495903968811,567.0
36.3355278968811,561.0
36.34520697593689,562.0
36.35470390319824,559.0
36.365458965301514,556.0
36.3756217956543,556.0
36.38551712036133,550.0
36.3952579498291,560.0
36.40473699569702,560.0
36.41539406776428,544.0
36.42551612854004,542.0
36.43552374839783,524.0
36.44524002075195,536.0
36.45477104187012,519.0
36.46557116508484,524.0
36.47562074661255,513.0
36.4854998588562,495.0
36.49526882171631,486.0
36.504721879959106,463.0
36.51544404029846,462.0
36.525355100631714,446.0
36.53551697731018,442.0
36.54519605636597,428.0
36.554638147354126,409.0
36.56535887718201,405.0
36.575342893600464,394.0
36.585505962371826,383.0
36.59520387649536,369.0
36.60468101501465,361.0
36.615453004837036,344.0
36.62551498413086,338.0
36.635491132736206,307.0
36.64519500732422,320.0
36.65464806556702,316.0
36.66540598869324,303.0
36.67552995681763,303.0
36.68549990653992,298.0
36.69527816772461,295.0
36.70475482940674,294.0
36.715543031692505,297.0
36.72497582435608,285.0
36.73550796508789,290.0
36.74518394470215,280.0
36.75462508201599,256.0
36.76541805267334,260.0
36.77546191215515,222.0
36.78551506996155,232.0
36.795249938964844,214.0
36.80471086502075,200.0
36.81544589996338,167.0
36.825445890426636,136.0
36.83551478385925,114.0
36.84524393081665,86.0
36.8547101020813,68.0
36.865561723709106,49.0
36.8756890296936,42.0
36.88549995422363,35.0
36.89526891708374,35.0
36.904736042022705,35.0
36.91551113128662,38.0
36.925528049468994,35.0
36.93550491333008,34.0
36.94524598121643,33.0
36.95471215248108,35.0
36.965497732162476,34.0
36.975545167922974,38.0
36.98550200462341,31.0
36.995261907577515,32.0
37.00473976135254,32.0
37.0155348777771,31.0
37.02564001083374,23.0
37.03548002243042,33.0
37.04519081115723,28.0
37.05464196205139,29.0
37.0654878616333,27.0
37.0756049156189,29.0
37.0855028629303,29.0
37.09529185295105,28.0
37.10476589202881,33.0
37.115533113479614,27.0
37.12508010864258,26.0
37.135502099990845,27.0
37.14522910118103,29.0
37.15468192100525,27.0
37.165435791015625,26.0
37.17537474632263,26.0
37.185482025146484,28.0
37.19531297683716,27.0
37.20486092567444,27.0
37.21565103530884,27.0
37.225603103637695,25.0
37.23549485206604,24.0
37.24534511566162,25.0
37.25490093231201,24.0
37.26574110984802,27.0
37.275736808776855,27.0
37.285491943359375,25.0
37.295389890670776,31.0
37.30493998527527,26.0
37.31572508811951,18.0
37.32563781738281,30.0
37.335516929626465,28.0
37.34528994560242,30.0
37.35476899147034,28.0
37.36559987068176,28.0
37.3756890296936,26.0
37.38550782203674,24.0
37.39531707763672,28.0
37.40482997894287,26.0
37.41566586494446,32.0
37.42568874359131,26.0
37.43549394607544,28.0
37.44514584541321,28.0
37.45462703704834,27.0
37.46511101722717,26.0
37.47527098655701,24.0
37.48550081253052,30.0
37.495269775390625,27.0
37.504732847213745,29.0
37.515480756759644,25.0
37.5249879360199,24.0
37.53547811508179,29.0
37.545222997665405,20.0
37.55466914176941,29.0
37.56554079055786,28.0
37.57557392120361,29.0
37.58550405502319,25.0
37.595256090164185,27.0
37.6047260761261,31.0
37.61556100845337,26.0
37.62557101249695,29.0
37.63549995422363,27.0
37.64523792266846,28.0
37.65475583076477,28.0
37.66561007499695,30.0
37.675596952438354,29.0
37.68549394607544,29.0
37.695268869400024,28.0
37.704723834991455,25.0
37.71554899215698,31.0
37.72547888755798,28.0
37.73548483848572,31.0
37.745245933532715,30.0
37.75471591949463,29.0
37.76552605628967,27.0
37.77551198005676,28.0
37.7854950428009,28.0
37.7952618598938,26.0
37.80471181869507,32.0
37.81547999382019,30.0
37.82541108131409,25.0
37.83548593521118,31.0
37.8451988697052,27.0
37.8546838760376,31.0
37.86542582511902,28.0
37.87534999847412,19.0
37.8854877948761,28.0
37.895248889923096,30.0
37.904727935791016,32.0
37.91559600830078,29.0
37.925689935684204,28.0
37.93548583984375,30.0
37.94527578353882,28.0
37.95477890968323,28.0
37.96555280685425,32.0
37.97558307647705,27.0
37.98549509048462,29.0
37.995278120040894,26.0
38.004756927490234,31.0
38.01556205749512,31.0
38.02549600601196,32.0
38.035491943359375,31.0
38.04525804519653,33.0
38.054702043533325,30.0
38.06555795669556,31.0
38.07567095756531,28.0
38.0855028629303,30.0
38.095277070999146,32.0
38.104745864868164,28.0
38.11548185348511,22.0
38.125425815582275,32.0
38.135472774505615,28.0
38.14525580406189,21.0
38.154720067977905,28.0
38.16554403305054,28.0
38.175593852996826,29.0
38.18549990653992,36.0
38.19522786140442,31.0
38.20468306541443,30.0
38.215545892715454,29.0
38.22566771507263,29.0
38.23551797866821,23.0
38.24519395828247,31.0
38.25468707084656,31.0
38.265440940856934,34.0
38.27536106109619,30.0
38.285473108291626,33.0
38.295202016830444,31.0
38.30466413497925,24.0
38.31546902656555,29.0
38.324952125549316,34.0
38.335476875305176,35.0
38.34521985054016,32.0
38.3546838760376,29.0
38.36544489860535,29.0
38.37553787231445,35.0
38.385488986968994,29.0
38.39524292945862,28.0
38.404698848724365,33.0
38.41548180580139,27.0
38.42561411857605,30.0
38.43547797203064,30.0
38.44523596763611,31.0
38.45474696159363,32.0
38.46555280685425,28.0
38.47566103935242,29.0
38.485469818115234,33.0
38.495276927948,29.0
38.5047550201416,32.0
38.51552891731262,29.0
38.52548003196716,34.0
38.535470724105835,27.0
38.545289039611816,34.0
38.55475091934204,34.0
38.565568923950195,31.0
38.57569408416748,30.0
38.585495948791504,31.0
38.59528589248657,31.0
38.60475707054138,24.0
38.61562180519104,30.0
38.62575387954712,31.0
38.6354718208313,25.0
38.645195960998535,32.0
38.65468502044678,29.0
38.6655170917511,34.0
38.67552208900452,32.0
38.68547582626343,32.0
38.69525098800659,33.0
38.704704999923706,23.0
38.71548795700073,30.0
38.72497582435608,32.0
38.735474824905396,32.0
38.74521803855896,35.0
38.754682779312134,30.0
38.76546001434326,33.0
38.77541184425354,28.0
38.7854688167572,37.0
38.79524207115173,30.0
38.804696798324585,33.0
38.815470933914185,32.0
38.82555603981018,33.0
38.83548283576965,31.0
38.845216035842896,32.0
38.854743003845215,30.0
38.86553907394409,30.0
38.875531911849976,35.0
38.885456800460815,33.0
38.895241022109985,23.0
38.904715061187744,33.0
38.91549110412598,31.0
38.92557692527771,28.0
38.93548393249512,31.0
38.94525694847107,30.0
38.95471906661987,31.0
38.96557688713074,37.0
38.97557497024536,33.0
38.98548197746277,33.0
38.99530792236328,31.0
39.004804849624634,24.0
39.01559805870056,23.0
39.02560901641846,33.0
39.0354790687561,33.0
39.04517984390259,33.0
39.05462098121643,34.0
39.06542110443115,31.0
39.07538986206055,30.0
39.08548188209534,32.0
39.09524083137512,25.0
39.10475015640259,34.0
39.115520000457764,28.0
39.124958992004395,34.0
39.135475873947144,35.0
39.145209074020386,31.0
39.15467691421509,31.0
39.165464878082275,26.0
39.17554998397827,35.0
39.18545579910278,32.0
39.19523310661316,31.0
39.20472192764282,33.0
39.21550893783569,32.0
39.225565910339355,28.0
39.23547077178955,27.0
39.245227098464966,34.0
39.25467896461487,32.0
39.265450954437256,31.0
39.27561593055725,33.0
39.2854688167572,31.0
39.295259952545166,25.0
39.30471992492676,29.0
39.315468072891235,31.0
39.325677156448364,28.0
39.33545804023743,31.0
39.34522485733032,31.0
39.35469603538513,24.0
39.36546492576599,23.0
39.37543201446533,23.0
39.38547205924988,33.0
39.395248889923096,35.0
39.404760122299194,33.0
39.41561985015869,33.0
39.42559194564819,26.0
39.43547701835632,31.0
39.44516086578369,31.0
39.45460510253906,30.0
39.4654278755188,33.0
39.475568771362305,25.0
39.485461950302124,34.0
39.49524188041687,34.0
39.50469779968262,31.0
39.515477895736694,36.0
39.525033950805664,34.0
39.535502910614014,33.0
39.545286893844604,32.0
39.5548460483551,34.0
39.56588387489319,32.0
39.57594084739685,33.0
39.585469007492065,33.0
39.59531497955322,32.0
39.6048309803009,32.0
39.61550211906433,28.0
39.62558102607727,35.0
39.63548183441162,32.0
39.64523196220398,29.0
39.654744148254395,32.0
39.66565203666687,35.0
39.675657987594604,32.0
39.68546986579895,36.0
39.69536781311035,35.0
39.70495796203613,33.0
39.71583795547485,30.0
39.72584795951843,37.0
39.735480070114136,34.0
39.74526381492615,32.0
39.754754066467285,35.0
39.76555013656616,32.0
39.775516986846924,27.0
39.78547787666321,31.0
39.79527401924133,33.0
39.804752826690674,33.0
39.81564283370972,33.0
39.82565498352051,28.0
39.83548283576965,33.0
39.84518790245056,33.0
39.854694843292236,31.0
39.86552286148071,33.0
39.875585079193115,37.0
39.88545894622803,33.0
39.89527082443237,36.0
39.904760122299194,34.0
39.91561985015869,28.0
39.92562985420227,38.0
39.93548893928528,37.0
39.94525599479675,30.0
39.95473098754883,37.0
39.965625047683716,36.0
39.975605964660645,34.0
39.9854531288147,38.0
39.995213985443115,29.0
40.00467586517334,33.0
40.01546812057495,38.0
40.02564001083374,36.0
40.03547811508179,39.0
40.045247077941895,37.0
40.054774045944214,35.0
40.065547943115234,37.0
40.07558608055115,40.0
40.08546209335327,39.0
40.095277070999146,38.0
40.104737997055054,40.0
40.11552691459656,42.0
40.12556290626526,42.0
40.13546395301819,41.0
40.145232915878296,36.0
40.1547110080719,40.0
40.16553807258606,41.0
40.175572872161865,43.0
40.18547201156616,39.0
40.195266008377075,46.0
40.20474195480347,37.0
40.21556878089905,45.0
40.22565698623657,42.0
40.235480070114136,51.0
40.24518895149231,52.0
40.25468182563782,63.0
40.265450954437256,70.0
40.27510190010071,74.0
40.28544783592224,67.0
40.29512405395508,75.0
40.30455303192139,85.0
40.3153338432312,77.0
40.325016021728516,76.0
40.33545804023743,79.0
40.34510111808777,80.0
40.35453009605408,79.0
40.36537289619446,76.0
40.375332832336426,83.0
40.38546109199524,78.0
40.39496874809265,84.0
40.405555963516235,95.0
40.41532278060913,105.0
40.42528009414673,112.0
40.435452938079834,109.0
40.445186138153076,104.0
40.45468807220459,115.0
40.46555805206299,127.0
40.475605964660645,132.0
40.48547887802124,127.0
40.49521493911743,132.0
40.504687786102295,124.0
40.51546597480774,126.0
40.52556395530701,121.0
40.53545093536377,134.0
40.54520082473755,134.0
40.55468487739563,127.0
40.565425872802734,147.0
40.57547688484192,149.0
40.585469007492065,151.0
40.59520697593689,143.0
40.604663133621216,154.0
40.6154408454895,159.0
40.6254940032959,165.0
40.635451793670654,169.0
40.6451678276062,166.0
40.654645919799805,166.0
40.665454149246216,145.0
40.67540192604065,169.0
40.68547582626343,153.0
40.69523572921753,185.0
40.70470595359802,191.0
40.71545600891113,194.0
40.72498798370361,202.0
40.735068798065186,221.0
40.74517893791199,226.0
40.754631996154785,239.0
40.76548790931702,241.0
40.77554416656494,252.0
40.78544902801514,245.0
40.79525399208069,255.0
40.804718017578125,271.0
40.81557774543762,254.0
40.82561683654785,251.0
40.83544898033142,254.0
40.84523010253906,257.0
40.85477089881897,264.0
40.86564493179321,268.0
40.87567210197449,273.0
40.88546800613403,265.0
40.89525389671326,283.0
40.90472984313965,307.0
40.91563296318054,301.0
40.92571997642517,295.0
40.93547010421753,303.0
40.94521188735962,315.0
40.95469117164612,321.0
40.96548390388489,323.0
40.97553896903992,325.0
40.985461950302124,314.0
40.99525594711304,311.0
41.00473499298096,313.0
41.015620946884155,318.0
41.02565097808838,309.0
41.03544902801514,316.0
41.04515194892883,311.0
41.0546178817749,318.0
41.06551194190979,329.0
41.075623989105225,326.0
41.08547306060791,330.0
41.09527802467346,328.0
41.10475492477417,334.0
41.11555194854736,334.0
41.12505292892456,337.0
41.13544487953186,356.0
41.1451940536499,321.0
41.15465807914734,338.0
41.16553711891174,340.0
41.1755850315094,339.0
41.18544316291809,357.0
41.19522476196289,350.0
41.204691886901855,359.0
41.21549105644226,358.0
41.22549104690552,341.0
41.2354519367218,377.0
41.245182037353516,380.0
41.25469899177551,380.0
41.26558589935303,396.0
41.27567386627197,394.0
41.28544902801514,373.0
41.2951819896698,380.0
41.30464792251587,403.0
41.31549000740051,392.0
41.32561683654785,362.0
41.33544707298279,385.0
41.34526991844177,390.0
41.35473585128784,380.0
41.365562915802,381.0
41.375558853149414,380.0
41.38546299934387,376.0
41.39525508880615,399.0
41.40474605560303,405.0
41.415541887283325,391.0
41.42549204826355,391.0
41.435473918914795,409.0
41.445188760757446,403.0
41.454683780670166,411.0
41.46546792984009,416.0
41.47539401054382,414.0
41.48544692993164,408.0
41.495248794555664,407.0
41.504782915115356,412.0
41.51566481590271,403.0
41.52628684043884,371.0
41.534990072250366,406.0
41.5453679561615,402.0
41.55487298965454,386.0
41.565701961517334,416.0
41.57565999031067,414.0
41.58543682098389,420.0
41.595245122909546,413.0
41.60472798347473,420.0
41.61552095413208,424.0
41.62548613548279,426.0
41.63550591468811,440.0
41.645206928253174,432.0
41.65468192100525,436.0
41.66560387611389,418.0
41.67570686340332,442.0
41.68545889854431,435.0
41.695215940475464,439.0
41.704707860946655,446.0
41.71555495262146,451.0
41.72564101219177,449.0
41.735459089279175,461.0
41.745232820510864,474.0
41.75471377372742,470.0
41.765509843826294,473.0
41.77544808387756,475.0
41.785433769226074,465.0
41.79520583152771,473.0
41.80466890335083,471.0
41.81541991233826,465.0
41.825459003448486,439.0
41.83544182777405,445.0
41.845144748687744,442.0
41.85458993911743,438.0
41.865368127822876,439.0
41.875328063964844,434.0
41.88543891906738,419.0
41.89516496658325,413.0
41.90465998649597,435.0
41.91545486450195,432.0
41.92501497268677,424.0
41.935457944869995,419.0
41.94518303871155,417.0
41.954641819000244,411.0
41.96538281440735,415.0
41.97533106803894,406.0
41.98542499542236,386.0
41.99518895149231,381.0
42.00467586517334,373.0
42.0155348777771,365.0
42.025638818740845,361.0
42.03545093536377,362.0
42.045175075531006,348.0
42.0547080039978,350.0
42.06554198265076,349.0
42.07554578781128,358.0
42.085448026657104,359.0
42.095232009887695,370.0
42.10469102859497,377.0
42.11549115180969,353.0
42.12552094459534,338.0
42.13545608520508,385.0
42.145227909088135,378.0
42.15473294258118,377.0
42.16551399230957,373.0
42.175516843795776,380.0
42.185452938079834,386.0
42.195252895355225,375.0
42.204747915267944,387.0
42.215518951416016,372.0
42.22557497024536,380.0
42.23545289039612,400.0
42.24517297744751,394.0
42.25463080406189,400.0
42.265071868896484,400.0
42.27470111846924,376.0
42.285425901412964,373.0
42.2951717376709,408.0
42.304624795913696,412.0
42.315486907958984,401.0
42.3255729675293,404.0
42.33544707298279,381.0
42.34524178504944,382.0
42.35471987724304,397.0
42.36558485031128,404.0
42.37567377090454,409.0
42.38545799255371,406.0
42.39525508880615,417.0
42.4047269821167,423.0
42.41563177108765,422.0
42.425702810287476,423.0
42.43543291091919,401.0
42.445204973220825,412.0
42.45476412773132,415.0
42.46557593345642,417.0
42.4755539894104,430.0
42.48545575141907,412.0
42.49521088600159,404.0
42.504714012145996,399.0
42.515480756759644,399.0
42.52542996406555,400.0
42.53543305397034,371.0
42.54526376724243,403.0
42.554771900177,386.0
42.5656099319458,393.0
42.57559299468994,398.0
42.58544301986694,400.0
42.595258951187134,393.0
42.60475015640259,392.0
42.61558985710144,373.0
42.62559103965759,349.0
42.63544297218323,392.0
42.64499306678772,381.0
42.65556788444519,367.0
42.66544008255005,327.0
42.67554998397827,354.0
42.68545579910278,350.0
42.6952121257782,357.0
42.704694986343384,355.0
42.71555685997009,356.0
42.725663900375366,350.0
42.7354519367218,369.0
42.74521803855896,365.0
42.754671812057495,366.0
42.765506982803345,372.0
42.775527000427246,377.0
42.78545308113098,367.0
42.79522895812988,372.0
42.804709911346436,383.0
42.81552195549011,367.0
42.82554602622986,359.0
42.83545184135437,354.0
42.84520983695984,357.0
42.854673862457275,340.0
42.86557388305664,356.0
42.87560296058655,360.0
42.88544678688049,347.0
42.89523506164551,365.0
42.904736042022705,363.0
42.915541887283325,367.0
42.925466775894165,357.0
42.9354350566864,361.0
42.94520401954651,359.0
42.954702854156494,365.0
42.96549391746521,379.0
42.97550106048584,373.0
42.98544478416443,361.0
42.9951958656311,358.0
43.00467085838318,354.0
43.01553797721863,345.0
43.025569915771484,360.0
43.03542613983154,360.0
43.045156955718994,361.0
43.05461096763611,346.0
43.06542205810547,361.0
43.07558512687683,384.0
43.08542799949646,392.0
43.095232009887695,399.0
43.10471701622009,392.0
43.11551308631897,390.0
43.12502098083496,387.0
43.1354398727417,387.0
43.14518594741821,419.0
43.15466594696045,412.0
43.165454149246216,403.0
43.17546606063843,388.0
43.185433864593506,392.0
43.19523000717163,397.0
43.20470190048218,409.0
43.21556091308594,401.0
43.22554898262024,403.0
43.23541307449341,419.0
43.24515986442566,414.0
43.25468993186951,423.0
43.26557111740112,428.0
43.27568316459656,430.0
43.2854368686676,427.0
43.29525184631348,439.0
43.3047559261322,441.0
43.315600872039795,427.0
43.325581073760986,429.0
43.335434913635254,420.0
43.34517002105713,421.0
43.35464811325073,421.0
43.365402936935425,430.0
43.37535905838013,420.0
43.3854079246521,410.0
43.39520597457886,433.0
43.404680013656616,448.0
43.41552209854126,444.0
43.425604820251465,439.0
43.435417890548706,449.0
43.44516396522522,442.0
43.45465898513794,448.0
43.46554899215698,438.0
43.475653886795044,457.0
43.48544788360596,450.0
43.49524402618408,452.0
43.50474500656128,447.0
43.51554489135742,449.0
43.52503800392151,449.0
43.53540778160095,448.0
43.54515981674194,449.0
43.55461502075195,445.0
43.56539607048035,457.0
43.57537579536438,453.0
43.5854058265686,458.0
43.59517288208008,452.0
43.60465097427368,444.0
43.615432024002075,446.0
43.62539291381836,448.0
43.63542699813843,446.0
43.64514684677124,437.0
43.65469288825989,428.0
43.665462017059326,401.0
43.67542505264282,408.0
43.685412883758545,410.0
43.6951858997345,394.0
43.704654932022095,407.0
43.715466022491455,418.0
43.725502014160156,408.0
43.73542499542236,416.0
43.74514675140381,425.0
43.754591941833496,437.0
43.76493000984192,441.0
43.77564191818237,464.0
43.78540897369385,482.0
43.79525709152222,467.0
43.80474805831909,467.0
43.815600872039795,465.0
43.82567286491394,479.0
43.83543086051941,480.0
43.84516501426697,479.0
43.85463285446167,478.0
43.86544895172119,455.0
43.87545299530029,482.0
43.88542103767395,477.0
43.89519286155701,493.0
43.904680013656616,500.0
43.915586948394775,502.0
43.92556190490723,498.0
43.9354350566864,498.0
43.945183992385864,504.0
43.95464301109314,479.0
43.965415954589844,505.0
43.975497007369995,495.0
43.98542499542236,497.0
43.99519109725952,497.0
44.00465202331543,491.0
44.015442848205566,462.0
44.02545094490051,485.0
44.03541302680969,501.0
44.0451500415802,501.0
44.05466079711914,492.0
44.06544899940491,484.0
44.0754120349884,512.0
44.085421085357666,511.0
44.09518599510193,517.0
44.10464310646057,517.0
44.115500926971436,521.0
44.12559390068054,526.0
44.135436058044434,534.0
44.14519190788269,518.0
44.154670000076294,522.0
44.165472984313965,517.0
44.17556691169739,524.0
44.18539905548096,515.0
44.19518494606018,497.0
44.20464587211609,525.0
44.21547079086304,519.0
44.22558093070984,518.0
44.23540687561035,529.0
44.24515104293823,532.0
44.25460886955261,532.0
44.265366077423096,536.0
44.27532696723938,528.0
44.285401821136475,532.0
44.29521679878235,528.0
44.30469512939453,540.0
44.315462827682495,527.0
44.32490086555481,508.0
44.33540391921997,525.0
44.34513473510742,524.0
44.3546040058136,518.0
44.365362882614136,521.0
44.375284910202026,524.0
44.385401010513306,517.0
44.39495086669922,536.0
44.405515909194946,531.0
44.415278911590576,541.0
44.425209045410156,540.0
44.43540096282959,539.0
44.44518709182739,536.0
44.454710960388184,537.0
44.46548676490784,556.0
44.475422859191895,550.0
44.48539590835571,513.0
44.49526405334473,535.0
44.504772901535034,536.0
44.51555514335632,525.0
44.525497913360596,526.0
44.53539776802063,521.0
44.54519605636597,518.0
44.55467176437378,506.0
44.565433740615845,519.0
44.57535481452942,512.0
44.58539795875549,518.0
44.595205783843994,522.0
44.604681968688965,522.0
44.6154408454895,524.0
44.62538504600525,514.0
44.63539409637451,523.0
44.64514899253845,520.0
44.654627084732056,506.0
44.66539287567139,505.0
44.67533993721008,519.0
44.68541693687439,539.0
44.69517493247986,520.0
44.70465588569641,525.0
44.71541500091553,513.0
44.72490382194519,525.0
44.735393047332764,546.0
44.74514412879944,546.0
44.754591941833496,520.0
44.7653329372406,546.0
44.77527594566345,550.0
44.78539299964905,521.0
44.79520106315613,541.0
44.80467510223389,548.0
44.815449953079224,536.0
44.825376987457275,536.0
44.835391998291016,527.0
44.8451828956604,522.0
44.8547101020813,521.0
44.86548686027527,529.0
44.87549376487732,525.0
44.88546109199524,492.0
44.895211935043335,525.0
44.90470099449158,522.0
44.91559290885925,517.0
44.92562794685364,522.0
44.935417890548706,509.0
44.945186138153076,501.0
44.95466899871826,504.0
44.96546006202698,499.0
44.975476026535034,488.0
44.985419034957886,462.0
44.995163917541504,474.0
45.00463581085205,480.0
45.0155029296875,450.0
45.02559208869934,437.0
45.03540301322937,456.0
45.045156955718994,455.0
45.054649114608765,461.0
45.06552815437317,473.0
45.07553791999817,464.0
45.085428953170776,466.0
45.09519386291504,472.0
45.1047260761261,481.0
45.11554789543152,487.0
45.125486850738525,478.0
45.13544988632202,486.0
45.1451530456543,455.0
45.154629945755005,469.0
45.16542601585388,467.0
45.17544984817505,460.0
45.185407876968384,468.0
45.19517993927002,471.0
45.204659938812256,471.0
45.215455055236816,473.0
45.225475788116455,471.0
45.23542094230652,454.0
45.24519872665405,477.0
45.25464916229248,481.0
45.26526689529419,479.0
45.27536678314209,476.0
45.28541111946106,472.0
45.29516005516052,488.0
45.30461001396179,480.0
45.31540608406067,461.0
45.32539081573486,454.0
45.335405111312866,446.0
45.34513998031616,453.0
45.35462403297424,443.0
45.365423917770386,436.0
45.37545895576477,438.0
45.385409116744995,434.0
45.39517116546631,444.0
45.40462684631348,444.0
45.415488958358765,446.0
45.42559313774109,446.0
45.435410022735596,454.0
45.44511890411377,452.0
45.45458197593689,448.0
45.46537899971008,443.0
45.475486040115356,456.0
45.48539900779724,449.0
45.495157957077026,446.0
45.50462102890015,451.0
45.51543879508972,451.0
45.524998903274536,422.0
45.535406827926636,451.0
45.54513478279114,449.0
45.55458998680115,451.0
45.56535887718201,462.0
45.5754120349884,457.0
45.58545398712158,443.0
45.59515690803528,463.0
45.604625940322876,438.0
45.61546182632446,449.0
45.62555909156799,467.0
45.63538098335266,472.0
45.64514470100403,467.0
45.65468907356262,456.0
45.66549205780029,448.0
45.675501108169556,449.0
45.68540596961975,449.0
45.69522786140442,451.0
45.70470714569092,452.0
45.71549391746521,438.0
45.7254741191864,447.0
45.735397815704346,466.0
45.745173931121826,454.0
45.75469183921814,457.0
45.76555895805359,458.0
45.775601863861084,454.0
45.78540110588074,463.0
45.79521989822388,471.0
45.804704904556274,471.0
45.81554889678955,451.0
45.82573103904724,449.0
45.835395097732544,445.0
45.845144748687744,445.0
45.85460615158081,447.0
45.865278005599976,457.0
45.8753559589386,448.0
45.88540482521057,441.0
45.89516806602478,455.0
45.9046311378479,464.0
45.915477991104126,440.0
45.924938917160034,446.0
45.93495297431946,456.0
45.945350885391235,456.0
45.95483589172363,448.0
45.96565103530884,456.0
45.9757080078125,445.0
45.98540997505188,425.0
45.995198011398315,426.0
46.00467586517334,417.0
46.0155189037323,418.0
46.02551984786987,418.0
46.0354061126709,419.0
46.04511904716492,407.0
46.0546760559082,403.0
46.0655517578125,431.0
46.07553696632385,446.0
46.08537983894348,429.0
46.09516382217407,437.0
46.10463094711304,439.0
46.11547017097473,441.0
46.125499963760376,446.0
46.135411977767944,456.0
46.145164012908936,435.0
46.154621839523315,433.0
46.16540598869324,431.0
46.17545700073242,422.0
46.18538999557495,420.0
46.19519090652466,419.0
46.20466685295105,418.0
46.21550393104553,416.0
46.22551608085632,417.0
46.23539686203003,421.0
46.24499583244324,418.0
46.25448179244995,413.0
46.265218019485474,424.0
46.27517890930176,423.0
46.285557985305786,392.0
46.29517388343811,417.0
46.30465579032898,421.0
46.315475940704346,417.0
46.324990034103394,409.0
46.33539795875549,413.0
46.3451189994812,403.0
46.354568004608154,398.0
46.36534786224365,405.0
46.37531805038452,395.0
46.38537812232971,389.0
46.39514994621277,401.0
46.404618978500366,395.0
46.415385723114014,394.0
46.42541003227234,380.0
46.43539881706238,387.0
46.44512581825256,390.0
46.454649925231934,386.0
46.46548509597778,398.0
46.475504875183105,390.0
46.48540496826172,366.0
46.495205879211426,361.0
46.50470781326294,357.0
46.51548790931702,335.0
46.52555799484253,367.0
46.53539299964905,359.0
46.54517889022827,359.0
46.55466079711914,338.0
46.56547403335571,372.0
46.57542896270752,366.0
46.585394859313965,346.0
46.59513711929321,365.0
46.604609966278076,364.0
46.61538004875183,367.0
46.62531399726868,348.0
46.63537406921387,364.0
46.64510488510132,342.0
46.654568910598755,342.0
46.6653618812561,329.0
46.67532396316528,316.0
46.68537092208862,322.0
46.69515299797058,312.0
46.704625844955444,314.0
46.71541094779968,312.0
46.72490692138672,311.0
46.73539996147156,313.0
46.745131969451904,321.0
46.75459408760071,322.0
46.76534390449524,319.0
46.7752890586853,318.0
46.785390853881836,290.0
46.795243978500366,311.0
46.80479097366333,321.0
46.815690994262695,293.0
46.82585096359253,289.0
46.83537578582764,280.0
46.84517502784729,271.0
46.8547101020813,266.0
46.86560392379761,254.0
46.87571096420288,223.0
46.88539385795593,209.0
46.89519000053406,211.0
46.90468692779541,195.0
46.91551208496094,220.0
46.92570185661316,205.0
46.9354031085968,243.0
46.945143938064575,229.0
46.95464086532593,215.0
46.96544575691223,220.0
46.975456953048706,250.0
46.98539900779724,241.0
46.995168924331665,236.0
47.00463581085205,236.0
47.01552700996399,221.0
47.02564001083374,249.0
47.035382986068726,251.0
47.04513597488403,253.0
47.054619789123535,243.0
47.06541109085083,254.0
47.07539391517639,256.0
47.08539175987244,250.0
47.09511876106262,248.0
47.10459017753601,245.0
47.11534380912781,238.0
47.12528109550476,241.0
47.13538408279419,244.0
47.145187854766846,230.0
47.15466594696045,198.0
47.165467977523804,212.0
47.17542600631714,205.0
47.185389041900635,203.0
47.195013761520386,199.0
47.20446276664734,196.0
47.21522498130798,181.0
47.22532391548157,180.0
47.23537302017212,189.0
47.245118856430054,176.0
47.25467014312744,162.0
47.26548504829407,172.0
47.27544093132019,186.0
47.2853729724884,174.0
47.29516005516052,179.0
47.304636001586914,178.0
47.31547284126282,142.0
47.32548689842224,142.0
47.33538293838501,136.0
47.345146894454956,134.0
47.354620933532715,136.0
47.36543893814087,122.0
47.375609159469604,121.0
47.38538599014282,117.0
47.39516806602478,122.0
47.40464997291565,105.0
47.41543507575989,100.0
47.42545413970947,100.0
47.43536305427551,93.0
47.44511795043945,94.0
47.454585790634155,93.0
47.46535301208496,88.0
47.47532296180725,71.0
47.48538088798523,57.0
47.49515700340271,72.0
47.50465202331543,63.0
